I,II,V1,V2,V3,V4,V5,V6,status,x
0,4,2,3,2,2,4,-2,0,1
0,4,2,3,2,2,4,-2,0,2
0,4,1,2,1,2,4,-2,0,3
0,3,1,2,1,1,4,-3,0,4
0,3,1,2,1,1,3,-3,0,5
0,2,1,2,0,1,3,-3,0,6
1,2,1,2,0,1,3,-3,0,7
1,1,1,2,0,1,4,-3,0,8
1,1,1,2,0,1,4,-2,0,9
1,1,1,2,1,2,5,-2,0,10
2,1,1,3,2,4,7,-1,0,11
3,2,1,4,3,6,9,0,0,12
4,4,2,5,6,9,12,1,0,13
6,6,2,7,9,13,16,3,0,14
8,10,3,10,14,17,20,6,0,15
11,14,4,12,19,23,26,9,0,16
15,19,6,16,26,30,32,14,0,17
20,26,8,21,33,37,39,18,0,18
25,33,11,26,42,45,46,24,0,19
31,41,14,33,49,53,55,30,0,20
37,50,18,39,59,62,63,36,0,21
45,60,21,47,69,72,72,43,0,22
53,70,25,54,78,81,82,51,0,23
61,81,29,62,88,90,91,58,0,24
69,92,33,69,97,99,99,66,0,25
77,103,37,77,106,107,108,74,0,26
85,114,40,84,114,115,115,81,0,27
93,124,44,90,121,122,122,88,0,28
100,133,47,96,127,128,128,94,0,29
106,141,49,102,132,133,133,99,0,30
111,148,52,106,136,137,138,104,0,31
116,154,53,110,140,140,141,107,0,32
120,159,55,112,142,143,143,110,0,33
122,162,55,114,144,144,145,112,0,34
124,164,55,115,145,145,146,112,0,35
124,165,55,114,145,145,145,112,0,36
123,164,54,113,144,144,144,111,0,37
122,162,52,111,142,142,142,109,0,38
119,158,50,108,140,139,140,106,0,39
115,153,48,103,136,135,136,102,0,40
110,147,45,98,132,130,131,97,0,41
104,139,42,93,127,125,126,92,0,42
97,131,38,86,121,118,120,86,0,43
90,121,35,79,115,111,113,79,0,44
82,111,31,72,107,103,105,72,0,45
74,100,27,64,99,94,97,65,0,46
66,89,23,56,91,85,88,58,0,47
58,78,20,49,82,76,79,50,0,48
50,67,16,41,72,67,69,43,0,49
42,57,13,34,63,57,60,36,0,50
35,47,10,27,54,48,50,30,0,51
28,38,7,21,46,41,43,23,0,52
23,30,5,16,38,33,34,18,0,53
17,23,3,11,30,26,27,13,0,54
13,16,2,8,23,19,20,8,0,55
9,11,1,5,17,14,15,5,0,56
6,7,0,3,12,9,10,2,0,57
4,3,-1,1,8,6,6,-1,0,58
2,1,-1,0,5,3,3,-2,0,59
1,-1,-2,0,3,1,1,-3,0,60
0,-2,-2,-1,1,0,0,-3,0,61
0,-2,-2,-1,0,0,0,-3,0,62
0,-2,-1,-1,0,0,-1,-3,0,63
0,-2,-1,-1,0,0,-1,-2,0,64
0,-1,-1,0,0,0,0,-2,0,65
0,-1,-1,0,0,0,0,-1,0,66
0,0,-1,0,0,1,0,0,0,67
0,1,-1,0,0,1,1,0,0,68
0,1,-1,0,0,1,2,1,0,69
0,2,0,0,1,1,2,1,0,70
0,2,0,0,1,2,3,2,0,71
0,2,0,0,1,2,3,2,0,72
0,3,0,0,2,2,4,2,0,73
0,3,0,0,2,2,4,2,0,74
1,4,0,0,3,3,4,2,0,75
1,4,0,1,3,3,5,3,0,76
2,4,0,1,4,4,5,3,0,77
2,5,-1,1,4,5,6,3,0,78
3,6,-1,1,5,6,6,3,0,79
4,6,-1,1,6,6,7,4,0,80
5,7,-1,2,6,7,7,4,0,81
6,8,-2,2,6,8,8,5,0,82
6,8,-2,1,6,8,8,5,0,83
7,9,-3,1,5,7,8,5,0,84
7,8,-4,0,2,6,7,4,0,85
7,8,-5,-1,0,4,6,3,0,86
6,6,-6,-3,-5,0,3,1,0,87
5,4,-7,-6,-11,-6,0,-2,0,88
2,0,-8,-9,-19,-12,-5,-6,0,89
-1,-5,-8,-12,-27,-20,-12,-12,0,90
-6,-11,-8,-15,-35,-29,-21,-18,0,91
-11,-19,-6,-17,-42,-39,-30,-26,0,92
-17,-27,-4,-17,-47,-47,-39,-34,0,93
-24,-35,1,-16,-49,-54,-48,-43,0,94
-30,-43,7,-12,-46,-57,-56,-50,0,95
-36,-50,16,-4,-37,-55,-61,-55,0,96
-41,-54,27,7,-19,-47,-62,-57,0,97
-43,-54,41,23,7,-30,-56,-55,0,98
-42,-49,57,45,44,-3,-44,-47,0,99
-37,-38,75,72,90,34,-23,-32,0,100
-27,-19,94,103,148,82,7,-10,0,101
-12,8,113,137,215,142,47,22,0,102
9,43,131,173,288,213,99,61,0,103
35,87,147,208,366,292,159,109,0,104
68,139,160,240,445,378,228,165,0,105
105,199,167,267,521,467,304,227,0,106
147,264,167,285,589,556,382,293,0,107
191,333,159,292,644,640,461,361,0,108
236,402,143,286,684,715,538,428,0,109
280,469,118,264,705,778,607,490,0,110
322,531,83,227,703,824,667,546,0,111
359,585,39,172,679,851,714,592,0,112
390,629,-11,103,631,857,746,626,0,113
414,659,-68,20,561,842,761,647,0,114
428,676,-129,-72,472,805,758,653,0,115
433,677,-191,-172,367,749,737,644,0,116
428,663,-252,-275,253,676,699,621,0,117
414,634,-309,-375,133,589,647,585,0,118
391,593,-359,-468,16,493,583,538,1024,119
361,540,-400,-550,-95,391,511,482,0,120
324,479,-430,-616,-196,290,432,420,0,121
283,412,-448,-664,-281,192,352,354,0,122
240,342,-454,-692,-348,102,273,288,0,123
196,273,-447,-699,-395,24,199,225,0,124
153,206,-428,-686,-422,-42,131,165,0,125
113,144,-400,-654,-428,-95,73,112,0,126
76,89,-363,-606,-417,-132,24,65,0,127
44,43,-321,-546,-392,-156,-14,28,0,128
18,5,-274,-477,-354,-167,-42,-2,0,129
-3,-24,-227,-402,-308,-167,-62,-24,0,130
-19,-45,-179,-327,-258,-159,-73,-40,0,131
-30,-59,-135,-254,-207,-144,-77,-49,0,132
-36,-65,-95,-185,-158,-125,-75,-52,0,133
-39,-67,-60,-125,-112,-103,-69,-52,0,134
-39,-64,-30,-73,-73,-82,-61,-49,0,135
-36,-58,-7,-30,-39,-62,-52,-45,0,136
-32,-51,9,2,-13,-43,-42,-39,0,137
-27,-42,21,25,5,-28,-32,-33,0,138
-22,-34,29,40,19,-16,-24,-27,0,139
-18,-27,32,50,27,-7,-17,-22,0,140
-13,-20,33,53,31,-1,-11,-18,0,141
-9,-14,31,53,31,3,-7,-14,0,142
-6,-10,29,49,30,5,-4,-12,0,143
-4,-7,25,44,27,5,-2,-10,0,144
-2,-5,22,39,23,5,-1,-9,0,145
-1,-4,18,33,19,3,-1,-9,0,146
-1,-3,15,28,16,2,-1,-9,0,147
-1,-3,13,23,13,0,-1,-9,0,148
-1,-4,11,20,10,-1,-1,-9,0,149
-1,-4,10,17,9,-2,-2,-9,0,150
-1,-4,9,15,7,-3,-2,-9,0,151
-1,-5,9,13,7,-4,-2,-9,0,152
-1,-5,8,13,6,-4,-2,-9,0,153
-1,-5,8,12,6,-4,-3,-9,0,154
-2,-5,8,12,6,-4,-3,-9,0,155
-2,-5,8,12,6,-4,-3,-9,0,156
-1,-5,8,12,7,-4,-2,-9,0,157
-1,-5,8,12,7,-4,-2,-9,0,158
-1,-5,8,12,7,-3,-2,-9,0,159
-1,-5,8,12,7,-3,-2,-9,0,160
-1,-5,8,13,7,-3,-2,-9,0,161
-1,-5,8,13,7,-3,-2,-9,0,162
-1,-5,8,13,7,-3,-2,-9,0,163
-1,-5,8,13,7,-3,-2,-9,0,164
-1,-5,8,13,7,-3,-2,-9,0,165
-1,-4,8,13,7,-3,-2,-9,0,166
0,-4,8,13,7,-3,-2,-9,0,167
0,-4,8,13,7,-3,-2,-9,0,168
0,-4,8,13,7,-3,-2,-9,0,169
0,-4,8,13,7,-2,-2,-9,0,170
0,-4,8,13,7,-2,-2,-9,0,171
0,-4,8,13,8,-2,-2,-8,0,172
0,-4,8,13,8,-2,-2,-8,0,173
0,-4,8,13,8,-2,-2,-8,0,174
0,-4,8,13,8,-2,-2,-8,0,175
0,-4,8,13,8,-2,-1,-8,0,176
0,-3,8,13,8,-2,-1,-8,0,177
0,-3,8,12,8,-1,-1,-8,0,178
0,-3,8,12,8,-1,-1,-8,0,179
0,-3,8,12,8,-1,-1,-8,0,180
0,-3,7,12,8,-1,-1,-8,0,181
0,-3,7,12,8,-1,-1,-8,0,182
0,-3,7,12,7,-2,-1,-8,0,183
-1,-3,7,11,7,-2,-1,-9,0,184
-1,-4,7,11,6,-2,-1,-9,0,185
-1,-4,7,11,5,-2,-1,-9,0,186
-1,-4,7,11,5,-3,-1,-9,0,187
-1,-4,7,10,5,-3,-1,-9,0,188
-1,-4,6,10,4,-3,-1,-9,0,189
-1,-4,6,10,5,-3,-1,-9,0,190
0,-4,6,10,6,-3,-1,-8,0,191
0,-3,6,11,7,-2,-1,-7,0,192
1,-2,6,11,10,0,0,-6,0,193
2,-1,7,12,13,2,0,-5,0,194
4,1,7,14,18,6,1,-3,0,195
6,4,8,15,24,10,2,-1,0,196
8,8,9,17,32,15,4,2,0,197
12,12,10,20,40,22,7,6,0,198
16,17,12,23,50,30,10,10,0,199
20,23,14,27,61,39,14,14,0,200
25,30,17,32,74,49,18,19,0,201
30,38,19,37,89,59,24,25,0,202
37,45,22,42,104,71,29,31,0,203
44,55,26,48,120,84,36,37,0,204
51,64,29,55,138,98,43,44,0,205
59,75,33,63,156,113,50,51,0,206
67,85,37,71,174,129,58,58,0,207
75,96,41,79,193,145,67,66,0,208
84,107,44,88,212,162,76,73,0,209
92,119,48,98,232,178,86,81,0,210
101,130,52,108,251,196,97,89,0,211
110,141,56,118,270,213,107,97,0,212
118,152,59,129,289,230,118,104,0,213
126,163,63,140,307,247,129,112,0,214
134,174,66,151,325,263,140,119,0,215
142,184,69,162,343,279,152,127,0,216
149,194,72,173,360,295,163,134,0,217
156,204,75,184,376,310,174,140,0,218
163,213,78,195,392,324,185,147,0,219
169,222,80,206,407,337,195,153,0,220
175,231,83,216,421,350,205,159,0,221
181,239,85,225,434,362,215,165,0,222
187,247,87,234,447,373,224,170,0,223
192,254,89,242,459,383,232,175,0,224
197,261,91,249,470,393,239,180,0,225
202,268,93,256,481,402,246,184,0,226
206,274,95,262,490,410,251,188,0,227
210,279,96,267,499,417,257,191,0,228
214,284,98,271,508,424,261,195,0,229
217,289,99,275,515,430,265,197,0,230
219,293,100,278,521,435,268,200,0,231
222,296,101,281,527,440,271,202,0,232
224,299,102,283,532,444,273,203,0,233
226,301,103,285,536,447,275,205,0,234
227,302,104,286,538,450,276,206,0,235
228,303,104,288,540,452,277,206,0,236
229,304,105,288,540,453,278,206,0,237
230,304,105,289,539,453,279,206,0,238
230,304,105,289,537,452,279,206,0,239
230,303,105,289,534,450,279,205,0,240
229,302,105,288,529,447,279,204,0,241
228,300,105,287,523,443,278,202,0,242
226,297,104,286,515,437,276,200,0,243
224,295,103,284,507,431,275,198,0,244
222,291,102,281,497,423,272,196,0,245
218,287,100,278,486,414,269,193,0,246
214,282,98,274,474,404,266,190,0,247
210,276,96,270,461,393,262,186,0,248
205,270,93,265,447,381,257,182,0,249
199,263,90,259,432,368,251,177,0,250
193,255,86,253,416,354,245,172,0,251
186,247,83,246,400,339,239,166,0,252
178,238,79,239,382,324,231,160,0,253
170,227,75,230,364,307,223,153,0,254
162,217,70,221,345,290,214,146,0,255
153,205,66,211,326,272,204,138,0,256
143,193,61,201,305,254,194,130,0,257
134,181,56,190,284,235,183,121,0,258
123,168,52,178,262,216,171,112,0,259
113,154,47,165,240,197,159,102,0,260
103,140,42,152,217,177,146,93,0,261
92,127,38,139,194,157,133,83,0,262
82,113,33,125,171,138,119,73,0,263
71,99,28,111,148,118,106,64,0,264
61,86,24,97,126,100,92,55,0,265
51,73,19,84,105,81,78,46,0,266
42,60,15,70,85,64,65,37,0,267
33,48,11,58,66,49,53,30,0,268
25,38,8,46,49,35,42,22,0,269
18,28,5,36,34,21,31,15,0,270
11,18,2,26,20,9,21,9,0,271
5,10,1,17,8,-1,12,3,0,272
0,3,-1,10,-2,-9,4,-2,0,273
-4,-3,-3,4,-10,-16,-1,-7,0,274
-7,-9,-4,0,-17,-22,-7,-11,0,275
-10,-13,-5,-4,-22,-26,-11,-14,0,276
-12,-16,-6,-8,-26,-29,-15,-16,0,277
-14,-19,-6,-10,-29,-31,-17,-18,0,278
-15,-20,-6,-12,-30,-32,-19,-19,0,279
-15,-21,-6,-13,-31,-33,-20,-20,0,280
-16,-22,-6,-13,-31,-32,-20,-20,0,281
-16,-22,-6,-14,-31,-32,-21,-20,0,282
-16,-22,-6,-13,-31,-31,-20,-20,0,283
-16,-22,-6,-13,-30,-30,-20,-19,0,284
-16,-21,-5,-12,-29,-29,-20,-19,0,285
-15,-21,-5,-12,-28,-28,-19,-18,0,286
-15,-20,-5,-11,-27,-27,-19,-18,0,287
-15,-20,-5,-11,-27,-27,-18,-17,0,288
-15,-19,-5,-10,-26,-26,-18,-16,0,289
-15,-19,-5,-10,-26,-25,-18,-16,0,290
-15,-18,-5,-9,-25,-25,-17,-16,0,291
-15,-18,-5,-9,-25,-25,-17,-15,0,292
-15,-17,-5,-9,-24,-24,-17,-15,0,293
-15,-17,-5,-9,-24,-24,-16,-15,0,294
-15,-16,-5,-9,-23,-23,-16,-15,0,295
-15,-15,-4,-9,-23,-23,-15,-15,0,296
-14,-15,-4,-8,-22,-22,-14,-15,0,297
-14,-14,-4,-8,-22,-22,-14,-15,0,298
-14,-14,-4,-8,-21,-21,-13,-15,0,299
-13,-13,-4,-8,-20,-21,-12,-15,0,300
-13,-12,-4,-8,-20,-20,-11,-15,0,301
-13,-12,-4,-8,-19,-20,-11,-14,0,302
-12,-11,-4,-8,-19,-19,-10,-14,0,303
-12,-11,-4,-8,-19,-19,-10,-14,0,304
-12,-11,-4,-8,-18,-18,-10,-14,0,305
-12,-10,-4,-8,-18,-18,-9,-14,0,306
-12,-10,-4,-8,-18,-18,-9,-14,0,307
-12,-10,-4,-8,-18,-18,-9,-14,0,308
-12,-10,-4,-8,-18,-17,-9,-14,0,309
-12,-10,-4,-8,-18,-17,-9,-14,0,310
-12,-10,-4,-7,-17,-17,-9,-14,0,311
-12,-10,-4,-7,-17,-17,-9,-14,0,312
-12,-9,-4,-7,-17,-17,-8,-13,0,313
-12,-9,-4,-7,-17,-17,-8,-13,0,314
-12,-9,-3,-7,-17,-17,-8,-13,0,315
-12,-9,-3,-7,-17,-17,-8,-13,0,316
-12,-9,-3,-7,-17,-16,-8,-13,0,317
-12,-9,-3,-7,-16,-16,-8,-13,0,318
-12,-9,-3,-7,-16,-16,-8,-13,0,319
-11,-9,-3,-7,-16,-16,-8,-13,0,320
-11,-9,-3,-7,-16,-16,-8,-13,0,321
-11,-9,-3,-7,-16,-16,-8,-13,0,322
-11,-9,-3,-7,-16,-16,-8,-13,0,323
-11,-9,-3,-7,-16,-16,-8,-13,0,324
-11,-9,-3,-7,-16,-16,-7,-13,0,325
-11,-8,-3,-7,-15,-16,-7,-12,0,326
-11,-8,-3,-7,-15,-16,-7,-12,0,327
-11,-8,-3,-7,-15,-16,-7,-12,0,328
-11,-8,-3,-7,-15,-15,-7,-12,0,329
-11,-8,-3,-7,-15,-15,-7,-12,0,330
-10,-8,-3,-7,-15,-15,-7,-12,0,331
-10,-8,-3,-6,-15,-15,-7,-12,0,332
-10,-7,-3,-6,-15,-15,-7,-12,0,333
-10,-7,-3,-6,-14,-15,-6,-12,0,334
-10,-7,-3,-6,-14,-15,-6,-12,0,335
-9,-7,-3,-6,-14,-15,-6,-12,0,336
-9,-7,-3,-6,-14,-14,-6,-12,0,337
-9,-7,-3,-6,-14,-14,-6,-12,0,338
-9,-6,-2,-6,-14,-14,-6,-12,0,339
-9,-6,-2,-6,-14,-14,-6,-12,0,340
-8,-6,-2,-6,-13,-14,-6,-12,0,341
-8,-6,-2,-5,-13,-14,-6,-12,0,342
-8,-6,-2,-5,-13,-14,-6,-12,0,343
-8,-6,-2,-5,-13,-14,-6,-12,0,344
-8,-6,-2,-5,-13,-14,-6,-12,0,345
-8,-6,-2,-5,-13,-13,-6,-12,0,346
-8,-6,-2,-5,-13,-13,-6,-12,0,347
-8,-6,-2,-5,-13,-13,-6,-12,0,348
-8,-6,-2,-5,-13,-13,-5,-12,0,349
-8,-5,-2,-5,-13,-13,-5,-12,0,350
-8,-5,-2,-5,-12,-13,-5,-12,0,351
-8,-5,-2,-5,-12,-12,-5,-12,0,352
-8,-5,-2,-5,-12,-12,-5,-12,0,353
-8,-5,-2,-5,-12,-12,-5,-11,0,354
-8,-5,-2,-5,-12,-12,-5,-11,0,355
-8,-5,-1,-5,-12,-12,-4,-11,0,356
-8,-5,-1,-5,-12,-12,-4,-11,0,357
-8,-5,-1,-5,-12,-12,-4,-11,0,358
-8,-5,-1,-5,-12,-12,-4,-11,0,359
-8,-5,-1,-5,-11,-11,-4,-11,0,360
-8,-5,-1,-5,-11,-11,-4,-11,0,361
-8,-5,-1,-5,-11,-11,-4,-11,0,362
-8,-5,-1,-4,-11,-11,-4,-11,0,363
-8,-5,-1,-4,-11,-11,-4,-11,0,364
-8,-5,-1,-4,-11,-11,-4,-11,0,365
-8,-4,-1,-4,-11,-11,-4,-11,0,366
-8,-4,-1,-4,-11,-11,-4,-10,0,367
-8,-4,-1,-4,-11,-11,-3,-10,0,368
-8,-4,-1,-4,-11,-11,-3,-10,0,369
-8,-4,-1,-4,-10,-10,-3,-10,0,370
-7,-4,-1,-4,-10,-10,-3,-10,0,371
-7,-4,-1,-4,-10,-10,-3,-10,0,372
-7,-4,-1,-4,-10,-10,-3,-10,0,373
-7,-4,-1,-4,-10,-10,-3,-10,0,374
-7,-4,-1,-4,-10,-10,-3,-10,0,375
-7,-4,-1,-4,-10,-10,-3,-9,0,376
-7,-4,-1,-4,-10,-10,-3,-9,0,377
-7,-3,-1,-4,-10,-10,-3,-9,0,378
-7,-3,-1,-4,-9,-10,-3,-9,0,379
-7,-3,-1,-4,-9,-10,-2,-9,0,380
-7,-3,-1,-4,-9,-9,-2,-9,0,381
-7,-3,-1,-4,-9,-9,-2,-9,0,382
-7,-3,-1,-4,-9,-9,-2,-9,0,383
-7,-3,-1,-4,-9,-9,-2,-9,0,384
-7,-3,-1,-4,-8,-9,-2,-9,0,385
-7,-3,-1,-3,-8,-8,-2,-9,0,386
-7,-3,-1,-3,-8,-8,-2,-9,0,387
-7,-3,-1,-3,-8,-8,-2,-9,0,388
-7,-2,-1,-3,-8,-8,-2,-9,0,389
-7,-2,-1,-3,-8,-8,-2,-9,0,390
-7,-2,-1,-3,-8,-8,-2,-9,0,391
-7,-2,-1,-3,-7,-7,-2,-9,0,392
-7,-2,-1,-3,-7,-7,-1,-9,0,393
-6,-2,-1,-3,-7,-7,-1,-9,0,394
-6,-2,-1,-3,-7,-7,-1,-9,0,395
-6,-2,-1,-3,-7,-7,-1,-9,0,396
-6,-2,0,-3,-7,-7,-1,-8,0,397
-6,-2,0,-3,-6,-7,-1,-8,0,398
-6,-2,0,-3,-6,-7,-1,-8,0,399
-6,-1,0,-3,-6,-6,-1,-8,0,400
-6,-1,0,-3,-6,-6,-1,-8,0,401
-6,-1,0,-2,-6,-6,-1,-8,0,402
-6,-1,0,-2,-6,-6,-1,-8,0,403
-6,-1,0,-2,-6,-6,-1,-8,0,404
-6,-1,0,-2,-6,-6,-1,-8,0,405
-6,-1,0,-2,-6,-6,-1,-8,0,406
-6,-1,0,-2,-6,-6,0,-8,0,407
-6,-1,0,-2,-5,-6,0,-8,0,408
-6,-1,0,-2,-5,-6,0,-8,0,409
-6,-1,0,-2,-5,-5,0,-8,0,410
-6,-1,0,-2,-5,-5,0,-8,0,411
-6,-1,0,-2,-5,-5,0,-8,0,412
-6,-1,0,-2,-5,-5,0,-8,0,413
-6,0,0,-1,-5,-5,0,-8,0,414
-5,0,0,-1,-5,-4,0,-8,0,415
-5,0,0,-1,-5,-4,0,-7,0,416
-5,0,0,-1,-4,-4,0,-7,0,417
-5,0,0,-1,-4,-4,0,-7,0,418
-5,0,0,-1,-4,-4,0,-7,0,419
-5,0,0,-1,-4,-4,0,-7,0,420
-4,0,0,-1,-4,-4,0,-7,0,421
-4,0,0,-1,-4,-4,0,-7,0,422
-4,0,0,-1,-3,-3,0,-7,0,423
-4,0,0,-1,-3,-3,0,-7,0,424
-4,1,0,-1,-3,-3,0,-7,0,425
-4,1,0,-1,-3,-3,0,-7,0,426
-4,1,0,-1,-3,-3,0,-7,0,427
-3,1,0,-1,-3,-3,0,-7,0,428
-3,1,0,-1,-3,-3,0,-7,0,429
-3,1,0,-1,-3,-3,0,-7,0,430
-3,1,0,-1,-3,-3,0,-7,0,431
-3,1,0,-1,-3,-3,0,-6,0,432
-3,1,0,-1,-3,-3,0,-6,0,433
-3,1,0,-1,-3,-3,0,-6,0,434
-3,1,0,-1,-2,-3,0,-6,0,435
-3,1,0,-1,-2,-2,0,-6,0,436
-3,1,0,0,-2,-2,0,-6,0,437
-3,1,0,0,-2,-2,0,-6,0,438
-3,1,0,0,-2,-2,0,-6,0,439
-3,1,0,0,-2,-2,0,-6,0,440
-3,2,0,0,-1,-2,1,-6,0,441
-3,2,0,0,-1,-2,1,-5,0,442
-3,2,0,0,-1,-1,1,-5,0,443
-3,2,0,0,-1,-1,1,-5,0,444
-3,2,0,0,-1,-1,1,-5,0,445
-3,2,0,0,-1,-1,1,-5,0,446
-3,2,1,0,-1,-1,1,-5,0,447
-3,2,1,0,-1,-1,1,-5,0,448
-3,2,1,0,0,-1,1,-5,0,449
-3,2,1,0,0,-1,1,-5,0,450
-3,2,1,0,0,-1,1,-5,0,451
-2,2,1,0,0,0,1,-5,0,452
-2,2,1,0,0,0,1,-5,0,453
-2,2,1,0,0,0,2,-5,0,454
-2,2,1,0,0,0,2,-5,0,455
-2,2,1,1,0,0,2,-5,0,456
-2,3,1,1,0,0,2,-5,0,457
-2,3,1,1,0,0,2,-5,0,458
-2,3,1,1,0,0,2,-5,0,459
-2,3,1,1,0,0,2,-5,0,460
-2,3,1,1,0,0,2,-4,0,461
-2,3,1,1,0,0,2,-4,0,462
-2,3,1,1,0,0,2,-4,0,463
-2,3,1,1,0,0,2,-4,0,464
-2,3,1,1,0,0,2,-4,0,465
-2,3,1,1,0,0,2,-4,0,466
-2,3,1,1,0,0,2,-4,0,467
-2,3,1,1,0,1,2,-4,0,468
-2,3,1,1,0,1,2,-4,0,469
-2,3,1,1,0,1,2,-4,0,470
-2,3,1,1,0,1,2,-4,0,471
-2,3,1,1,0,1,2,-4,0,472
-2,3,1,1,0,1,2,-3,0,473
-2,3,1,1,0,1,3,-3,0,474
-2,3,2,1,0,1,3,-3,0,475
-2,3,2,1,0,1,3,-3,0,476
-2,3,2,1,0,1,3,-3,0,477
-2,3,2,1,1,2,3,-3,0,478
-2,3,2,1,1,2,3,-3,0,479
-2,3,2,2,1,2,3,-3,0,480
-1,3,2,2,1,2,4,-3,0,481
-1,3,2,2,1,2,4,-3,0,482
-1,3,2,2,1,2,4,-3,0,483
-1,3,2,2,1,2,4,-3,0,484
-1,3,2,2,1,2,4,-3,0,485
-1,4,2,2,1,2,4,-3,0,486
-1,4,2,2,2,2,4,-3,0,487
-1,4,2,2,2,2,4,-2,0,488
0,4,2,2,2,2,4,-2,0,489
0,4,2,2,2,2,4,-2,0,490
0,4,2,2,2,2,4,-2,0,491
0,5,2,2,2,2,4,-2,0,492
0,5,2,2,2,2,4,-2,0,493
0,5,2,2,2,2,4,-2,0,494
0,5,2,2,2,2,4,-2,0,495
0,5,2,2,2,2,4,-2,0,496
0,5,2,2,2,2,4,-2,0,497
0,5,2,2,2,3,4,-2,0,498
0,5,2,3,3,3,4,-2,0,499
0,5,2,3,3,3,4,-2,0,500
0,5,2,3,3,3,4,-2,0,501
0,5,2,3,3,3,4,-2,0,502
0,5,2,3,3,3,4,-2,0,503
0,5,2,3,3,3,4,-2,0,504
1,4,2,3,2,3,4,-2,0,505
1,4,2,3,2,3,3,-2,0,506
1,4,2,2,1,2,3,-2,0,507
1,3,2,2,1,2,3,-2,0,508
1,3,2,2,0,2,3,-2,0,509
1,2,2,2,0,2,3,-2,0,510
1,2,2,2,0,2,3,-2,0,511
2,2,2,2,0,2,3,-2,0,512
2,2,2,2,0,3,4,-2,0,513
2,2,2,3,1,5,6,-1,0,514
3,3,2,4,3,7,8,0,0,515
5,5,2,5,6,10,11,1,0,516
7,7,2,7,9,14,15,3,0,517
9,10,3,10,14,18,20,6,0,518
12,15,5,13,19,24,25,10,0,519
16,20,7,17,26,31,32,14,0,520
21,26,9,22,33,38,39,19,0,521
26,34,12,27,42,46,46,24,0,522
32,42,15,33,50,54,54,31,0,523
39,51,18,40,59,63,63,37,0,524
46,61,21,47,69,73,72,44,0,525
54,71,25,54,78,82,81,51,0,526
62,82,29,62,88,91,90,59,0,527
70,93,33,69,97,100,99,67,0,528
78,104,36,77,106,108,107,74,0,529
86,114,40,84,114,116,114,81,0,530
94,124,43,90,121,123,121,88,0,531
100,133,46,96,127,129,127,94,0,532
107,142,49,102,132,134,133,99,0,533
112,149,51,106,137,138,137,104,0,534
116,155,53,110,140,141,140,107,0,535
120,159,54,113,143,144,143,110,0,536
122,163,55,114,144,145,144,112,0,537
124,165,55,115,145,146,145,113,0,538
124,165,54,115,145,146,145,112,0,539
123,164,54,113,144,145,144,111,0,540
121,162,52,111,143,143,142,109,0,541
118,158,50,108,140,140,139,106,0,542
114,153,48,104,137,136,136,102,0,543
109,147,45,99,133,132,131,97,0,544
104,140,42,93,128,126,126,92,0,545
97,131,38,86,122,120,120,86,0,546
90,122,35,79,115,112,113,79,0,547
82,112,31,72,108,104,105,72,0,548
74,101,27,64,99,96,96,65,0,549
66,90,24,57,91,87,88,57,0,550
58,79,20,49,82,77,78,50,0,551
49,68,17,42,73,68,69,43,0,552
42,58,13,34,63,59,60,36,0,553
34,47,10,28,54,50,50,30,0,554
28,39,8,22,46,42,43,24,0,555
23,31,5,17,38,34,34,18,0,556
17,23,4,12,31,27,27,13,0,557
13,17,2,9,24,21,20,8,0,558
9,11,2,6,18,15,14,5,0,559
6,7,1,3,13,11,10,2,0,560
4,4,0,2,9,8,6,0,0,561
2,1,-1,0,6,5,3,-2,0,562
1,0,-1,0,3,3,0,-3,0,563
1,-1,-1,0,1,2,0,-3,0,564
0,-1,-1,0,0,1,-1,-3,0,565
0,-1,-1,0,0,0,-1,-3,0,566
0,-1,-1,0,-1,0,-1,-2,0,567
0,-1,-1,0,-1,1,0,-1,0,568
0,0,-1,0,-1,1,0,-1,0,569
0,0,0,0,0,1,0,0,0,570
0,1,0,0,0,1,1,1,0,571
0,2,0,0,0,2,2,2,0,572
0,2,0,0,0,2,2,2,0,573
0,2,0,0,1,2,3,3,0,574
0,3,0,0,1,2,3,3,0,575
0,3,0,0,1,3,3,3,0,576
1,4,0,0,2,3,4,3,0,577
1,4,0,0,2,3,4,4,0,578
1,5,0,0,3,4,4,4,0,579
2,5,0,0,3,4,5,4,0,580
2,6,0,1,4,5,5,4,0,581
3,7,0,1,5,6,6,4,0,582
4,7,0,1,6,7,7,4,0,583
5,8,0,1,6,8,7,5,0,584
5,9,-1,1,6,8,8,5,0,585
6,9,-1,0,6,9,8,5,0,586
7,9,-2,0,5,8,8,5,0,587
7,9,-3,0,2,7,7,5,0,588
7,8,-4,-2,-1,4,6,3,0,589
6,7,-5,-4,-6,1,3,1,0,590
4,4,-6,-7,-12,-5,0,-2,0,591
2,0,-7,-10,-19,-11,-6,-6,0,592
-1,-5,-8,-13,-27,-20,-13,-12,0,593
-5,-11,-7,-15,-35,-28,-21,-18,0,594
-11,-19,-6,-17,-43,-38,-30,-26,0,595
-17,-27,-3,-18,-48,-46,-40,-34,0,596
-23,-36,0,-17,-50,-53,-49,-43,0,597
-30,-44,6,-12,-46,-56,-56,-50,0,598
-35,-50,15,-4,-37,-54,-61,-55,0,599
-40,-54,26,7,-19,-45,-62,-57,0,600
-42,-54,40,23,8,-29,-56,-55,0,601
-41,-49,56,45,45,-2,-43,-47,0,602
-36,-38,74,71,92,36,-22,-32,0,603
-26,-19,93,102,149,84,8,-10,0,604
-10,8,112,136,216,144,48,22,0,605
10,44,131,172,290,214,100,61,0,606
36,88,147,207,368,294,160,109,0,607
68,140,159,239,446,380,229,166,0,608
106,200,166,266,522,469,305,228,0,609
147,265,166,284,589,557,383,294,0,610
191,334,159,291,645,641,462,362,0,611
236,403,143,285,685,716,539,428,0,612
281,470,117,263,705,778,608,491,0,613
322,532,82,225,703,824,668,546,0,614
359,586,38,171,678,851,715,592,0,615
390,629,-11,101,630,857,746,627,0,616
413,659,-68,18,560,842,761,647,0,617
428,676,-129,-74,471,805,757,653,0,618
433,677,-191,-174,367,749,736,644,0,619
428,663,-252,-277,252,675,699,621,0,620
413,634,-309,-377,133,588,647,585,0,621
390,592,-359,-470,15,492,583,538,1024,622
360,540,-399,-551,-97,391,510,482,0,623
324,479,-430,-617,-197,289,431,420,0,624
283,412,-448,-665,-283,192,351,354,0,625
240,342,-453,-693,-349,102,273,288,0,626
196,273,-446,-700,-396,24,198,225,0,627
153,206,-428,-686,-422,-43,131,165,0,628
112,145,-399,-654,-429,-95,72,112,0,629
76,90,-363,-606,-418,-132,24,66,0,630
44,44,-320,-546,-392,-156,-14,28,0,631
18,6,-273,-476,-354,-167,-43,-2,0,632
-2,-24,-226,-402,-309,-167,-62,-24,0,633
-18,-45,-179,-327,-259,-159,-73,-39,0,634
-29,-58,-134,-254,-207,-144,-76,-48,0,635
-35,-65,-94,-186,-158,-124,-75,-52,0,636
-38,-66,-59,-125,-113,-103,-69,-52,0,637
-38,-63,-29,-73,-73,-82,-61,-49,0,638
-35,-57,-6,-31,-40,-61,-51,-44,0,639
-32,-50,9,1,-14,-43,-41,-38,0,640
-27,-42,21,24,6,-28,-32,-33,0,641
-22,-34,29,40,19,-16,-24,-27,0,642
-17,-26,32,49,27,-7,-17,-22,0,643
-12,-19,33,52,30,0,-11,-18,0,644
-8,-14,31,52,31,3,-7,-14,0,645
-5,-10,29,49,29,5,-4,-12,0,646
-3,-7,25,44,26,6,-2,-10,0,647
-1,-5,22,38,23,5,-1,-9,0,648
0,-3,18,33,19,4,-1,-9,0,649
0,-3,15,27,16,2,-1,-9,0,650
0,-3,13,23,13,0,-1,-9,0,651
0,-3,11,19,10,-1,-1,-9,0,652
0,-4,10,16,9,-2,-2,-9,0,653
0,-4,9,14,8,-3,-2,-9,0,654
0,-4,8,13,7,-4,-2,-9,0,655
0,-5,8,12,7,-4,-2,-9,0,656
0,-5,8,12,7,-4,-2,-9,0,657
0,-5,8,12,7,-4,-2,-10,0,658
0,-5,8,12,7,-4,-2,-10,0,659
0,-5,8,12,7,-4,-2,-10,0,660
0,-5,8,12,7,-4,-2,-10,0,661
0,-5,8,12,7,-4,-2,-9,0,662
0,-5,8,12,8,-3,-2,-9,0,663
0,-5,8,12,8,-3,-2,-9,0,664
0,-5,8,12,8,-3,-2,-9,0,665
0,-4,8,12,8,-3,-2,-9,0,666
0,-4,8,12,8,-3,-2,-9,0,667
0,-4,8,12,8,-2,-2,-9,0,668
0,-4,8,12,8,-2,-2,-9,0,669
0,-4,8,12,8,-2,-2,-8,0,670
0,-4,8,12,8,-2,-2,-8,0,671
0,-4,8,12,8,-2,-2,-8,0,672
0,-4,8,12,8,-2,-2,-8,0,673
0,-3,8,12,9,-2,-1,-8,0,674
0,-3,7,12,9,-1,-1,-8,0,675
0,-3,7,12,9,-1,-1,-8,0,676
0,-3,7,12,9,-1,-1,-8,0,677
0,-3,7,12,9,-1,-1,-8,0,678
0,-3,7,11,9,-1,-1,-8,0,679
0,-3,7,11,9,-1,-1,-7,0,680
0,-3,7,11,9,0,-1,-7,0,681
0,-3,7,11,9,0,-1,-7,0,682
0,-3,7,11,9,0,-1,-7,0,683
0,-3,7,11,9,0,-1,-8,0,684
0,-3,6,11,8,0,-1,-8,0,685
0,-3,6,11,8,-1,-1,-8,0,686
0,-3,6,10,7,-1,-1,-8,0,687
0,-3,6,10,7,-1,-1,-8,0,688
0,-3,6,10,6,-1,-2,-8,0,689
0,-3,6,10,5,-2,-2,-8,0,690
0,-4,6,10,5,-2,-2,-8,0,691
0,-4,6,10,5,-2,-2,-8,0,692
0,-3,5,10,5,-2,-2,-8,0,693
0,-3,5,10,6,-1,-2,-8,0,694
0,-3,5,10,8,0,-2,-7,0,695
1,-1,6,11,10,1,-1,-6,0,696
2,0,6,12,14,4,0,-4,0,697
4,2,7,13,19,7,0,-2,0,698
6,5,7,15,25,11,2,0,0,699
9,9,9,17,32,17,4,3,0,700
12,13,10,20,41,23,7,6,0,701
16,18,12,23,50,31,10,10,0,702
21,24,14,27,62,39,14,15,0,703
25,31,16,31,75,49,19,20,0,704
31,39,19,36,89,60,24,26,0,705
37,46,22,42,104,72,30,32,0,706
44,55,25,48,121,85,36,37,0,707
51,65,29,54,138,99,44,44,0,708
59,75,32,62,156,114,50,51,0,709
67,86,36,70,174,129,59,59,0,710
75,97,40,78,193,145,67,66,0,711
84,108,44,87,213,162,77,74,0,712
92,119,48,96,232,179,86,82,0,713
101,130,51,106,251,196,97,89,0,714
109,141,55,117,270,213,107,97,0,715
117,152,59,127,289,230,118,105,0,716
125,163,62,138,308,247,129,112,0,717
133,174,65,150,326,264,140,120,0,718
141,184,69,161,343,280,152,127,0,719
148,194,72,172,360,296,163,134,0,720
156,204,74,183,377,311,174,141,0,721
162,214,77,194,392,325,185,147,0,722
169,223,80,205,407,338,195,154,0,723
176,231,82,215,421,351,205,159,0,724
182,240,84,224,434,363,215,165,0,725
187,247,87,233,447,374,224,170,0,726
193,255,89,241,459,384,232,175,0,727
198,262,91,249,470,394,239,180,0,728
202,268,92,255,480,403,246,184,0,729
207,274,94,261,490,411,251,188,0,730
211,279,95,266,499,418,257,191,0,731
214,284,97,270,507,425,261,194,0,732
217,289,98,274,514,431,265,197,0,733
220,292,99,277,521,436,268,199,0,734
222,296,100,280,527,441,271,201,0,735
224,298,101,282,531,445,273,203,0,736
226,301,102,284,535,448,275,204,0,737
227,302,103,285,538,451,277,205,0,738
228,304,103,287,540,452,278,206,0,739
229,304,104,287,540,453,279,206,0,740
230,304,104,288,539,453,280,206,0,741
230,304,104,288,537,452,280,206,0,742
230,303,104,288,534,451,280,205,0,743
229,302,104,288,529,448,280,204,0,744
228,300,104,287,523,444,279,203,0,745
226,298,103,285,515,438,277,201,0,746
224,295,102,283,507,432,276,199,0,747
222,291,101,281,497,424,273,196,0,748
218,287,99,278,486,416,270,194,0,749
214,282,97,274,474,406,267,190,0,750
210,277,95,270,461,395,263,187,0,751
205,270,92,265,447,383,258,183,0,752
199,263,89,259,432,369,252,178,0,753
193,256,86,253,416,355,246,173,0,754
186,247,82,246,400,340,239,167,0,755
178,238,78,238,382,325,232,161,0,756
170,228,74,230,364,308,224,154,0,757
161,217,69,220,345,291,215,146,0,758
152,206,65,211,325,273,205,138,0,759
143,194,60,200,305,255,195,130,0,760
133,181,55,189,284,236,183,121,0,761
123,168,51,177,262,217,172,112,0,762
113,154,46,164,239,197,159,103,0,763
102,141,41,151,216,178,146,93,0,764
92,127,36,137,194,158,133,83,0,765
81,113,32,123,171,138,120,74,0,766
71,99,27,109,148,119,106,64,0,767
61,86,23,96,126,100,92,55,0,768
51,73,18,82,105,82,79,46,0,769
41,60,14,69,85,65,66,37,0,770
33,49,10,57,66,49,53,30,0,771
25,38,7,45,49,35,42,22,0,772
18,28,4,34,34,22,31,15,0,773
11,19,1,25,20,10,22,8,0,774
5,11,0,16,8,0,13,3,0,775
0,3,-1,9,-2,-9,5,-3,0,776
-3,-3,-3,4,-11,-16,-1,-7,0,777
-6,-8,-4,-1,-18,-21,-6,-11,0,778
-9,-12,-5,-5,-23,-25,-10,-14,0,779
-11,-16,-6,-8,-27,-28,-14,-17,0,780
-13,-18,-6,-11,-29,-30,-16,-19,0,781
-14,-20,-6,-12,-31,-31,-18,-20,0,782
-14,-21,-7,-14,-32,-32,-19,-21,0,783
-15,-22,-7,-14,-32,-32,-19,-21,0,784
-15,-22,-6,-14,-32,-31,-19,-21,0,785
-15,-22,-6,-14,-31,-30,-19,-21,0,786
-15,-21,-6,-14,-30,-29,-19,-20,0,787
-15,-21,-6,-13,-29,-28,-19,-19,0,788
-15,-21,-6,-13,-28,-27,-18,-19,0,789
-15,-20,-5,-12,-28,-27,-18,-18,0,790
-15,-19,-5,-12,-27,-26,-17,-17,0,791
-15,-19,-5,-11,-26,-25,-17,-17,0,792
-15,-18,-5,-11,-26,-25,-17,-16,0,793
-15,-18,-5,-10,-25,-24,-16,-16,0,794
-15,-17,-5,-10,-25,-24,-16,-15,0,795
-15,-17,-4,-10,-24,-24,-16,-15,0,796
-15,-17,-4,-9,-24,-23,-15,-15,0,797
-14,-16,-4,-9,-24,-23,-15,-14,0,798
-14,-15,-4,-9,-23,-22,-14,-14,0,799
-14,-15,-4,-9,-23,-22,-14,-14,0,800
-13,-14,-4,-9,-22,-21,-13,-14,0,801
-13,-14,-4,-9,-22,-21,-13,-14,0,802
-13,-13,-4,-9,-21,-20,-12,-14,0,803
-12,-13,-4,-9,-21,-20,-11,-14,0,804
-12,-12,-4,-9,-20,-19,-11,-14,0,805
-12,-12,-4,-9,-20,-19,-11,-14,0,806
-11,-11,-4,-9,-19,-19,-10,-14,0,807
-11,-11,-4,-9,-19,-18,-10,-14,0,808
-11,-11,-4,-9,-19,-18,-10,-14,0,809
-11,-10,-4,-9,-19,-18,-10,-14,0,810
-11,-10,-4,-9,-19,-18,-9,-14,0,811
-11,-10,-4,-9,-19,-18,-9,-14,0,812
-11,-10,-4,-9,-19,-17,-9,-14,0,813
-11,-10,-4,-9,-18,-17,-9,-14,0,814
-11,-10,-4,-9,-18,-17,-9,-14,0,815
-11,-10,-4,-9,-18,-17,-9,-14,0,816
-11,-9,-4,-9,-18,-17,-9,-14,0,817
-11,-9,-4,-9,-18,-17,-9,-14,0,818
-11,-9,-3,-8,-18,-17,-8,-14,0,819
-11,-9,-3,-8,-18,-16,-8,-14,0,820
-11,-9,-3,-8,-17,-16,-8,-13,0,821
-11,-9,-3,-8,-17,-16,-8,-13,0,822
-11,-9,-3,-8,-17,-16,-8,-13,0,823
-11,-9,-3,-8,-17,-16,-8,-13,0,824
-10,-9,-3,-8,-17,-16,-8,-13,0,825
-10,-9,-3,-8,-17,-16,-8,-13,0,826
-10,-9,-3,-8,-16,-16,-8,-13,0,827
-10,-9,-3,-8,-16,-16,-7,-13,0,828
-10,-9,-3,-8,-16,-16,-7,-13,0,829
-10,-8,-3,-8,-16,-16,-7,-13,0,830
-10,-8,-3,-8,-16,-16,-7,-13,0,831
-10,-8,-3,-8,-15,-15,-7,-13,0,832
-9,-8,-3,-7,-15,-15,-7,-12,0,833
-9,-8,-3,-7,-15,-15,-7,-12,0,834
-9,-8,-3,-7,-15,-15,-7,-13,0,835
-9,-8,-3,-7,-15,-15,-7,-13,0,836
-9,-7,-3,-7,-15,-15,-6,-13,0,837
-9,-7,-2,-7,-15,-14,-6,-13,0,838
-8,-7,-2,-7,-15,-14,-6,-13,0,839
-8,-7,-2,-7,-14,-14,-6,-13,0,840
-8,-7,-2,-6,-14,-14,-6,-13,0,841
-8,-7,-2,-6,-14,-14,-6,-12,0,842
-8,-7,-2,-6,-14,-14,-6,-12,0,843
-8,-6,-2,-6,-14,-13,-6,-12,0,844
-8,-6,-2,-6,-14,-13,-5,-12,0,845
-8,-6,-2,-6,-14,-13,-5,-12,0,846
-8,-6,-2,-6,-14,-13,-5,-12,0,847
-8,-6,-2,-6,-14,-13,-5,-12,0,848
-7,-6,-2,-6,-14,-13,-5,-12,0,849
-7,-6,-2,-6,-13,-13,-5,-11,0,850
-7,-6,-2,-6,-13,-13,-5,-11,0,851
-7,-6,-2,-6,-13,-12,-4,-11,0,852
-7,-5,-2,-6,-13,-12,-4,-11,0,853
-7,-5,-2,-6,-13,-12,-4,-11,0,854
-7,-5,-2,-6,-13,-12,-4,-11,0,855
-7,-5,-2,-6,-13,-12,-4,-11,0,856
-7,-5,-2,-6,-13,-12,-4,-11,0,857
-7,-5,-1,-6,-12,-12,-4,-11,0,858
-7,-5,-1,-6,-12,-12,-4,-11,0,859
-7,-5,-1,-6,-12,-11,-4,-11,0,860
-6,-5,-1,-6,-12,-11,-4,-11,0,861
-6,-5,-1,-6,-12,-11,-4,-11,0,862
-6,-4,-1,-5,-12,-11,-4,-10,0,863
-6,-4,-1,-5,-12,-11,-4,-10,0,864
-6,-4,-2,-5,-12,-11,-3,-10,0,865
-6,-4,-2,-5,-12,-11,-3,-10,0,866
-6,-4,-2,-5,-12,-11,-3,-10,0,867
-6,-4,-2,-5,-12,-10,-3,-10,0,868
-6,-4,-2,-5,-11,-10,-3,-10,0,869
-6,-4,-2,-5,-11,-10,-3,-10,0,870
-6,-4,-1,-5,-11,-10,-3,-10,0,871
-6,-4,-1,-5,-11,-10,-3,-10,0,872
-6,-4,-1,-5,-11,-10,-3,-10,0,873
-6,-4,-1,-5,-11,-10,-2,-10,0,874
-6,-4,-1,-5,-11,-10,-2,-10,0,875
-5,-4,-1,-5,-10,-10,-2,-10,0,876
-5,-4,-1,-5,-10,-9,-2,-10,0,877
-5,-3,-1,-4,-10,-9,-2,-10,0,878
-5,-3,-1,-4,-10,-9,-2,-10,0,879
-5,-3,-1,-4,-10,-9,-2,-10,0,880
-5,-3,-1,-4,-10,-9,-2,-9,0,881
-5,-3,-1,-4,-10,-9,-2,-9,0,882
-5,-3,-1,-4,-10,-9,-2,-9,0,883
-5,-3,-1,-4,-9,-9,-2,-9,0,884
-5,-3,-1,-4,-9,-9,-2,-9,0,885
-5,-3,-1,-4,-9,-8,-2,-9,0,886
-5,-3,-1,-4,-9,-8,-2,-9,0,887
-5,-3,-1,-4,-9,-8,-2,-9,0,888
-5,-3,-1,-4,-9,-8,-2,-9,0,889
-5,-3,-1,-4,-8,-8,-2,-9,0,890
-5,-2,-1,-4,-8,-8,-2,-9,0,891
-5,-2,-1,-4,-8,-8,-2,-9,0,892
-5,-2,-1,-4,-8,-7,-2,-9,0,893
-5,-2,-1,-4,-8,-7,-1,-9,0,894
-5,-2,0,-4,-8,-7,-1,-9,0,895
-4,-2,0,-4,-8,-7,-1,-8,0,896
-4,-1,0,-3,-8,-7,-1,-8,0,897
-4,-1,0,-3,-7,-7,-1,-8,0,898
-4,-1,0,-3,-7,-7,-1,-8,0,899
-4,-1,0,-3,-7,-7,-1,-8,0,900
-4,-1,0,-3,-7,-6,-1,-8,0,901
-4,-1,0,-3,-7,-6,-1,-8,0,902
-4,-1,0,-3,-7,-6,-1,-8,0,903
-4,-1,0,-3,-7,-6,-1,-8,0,904
-4,-1,0,-3,-7,-6,-1,-8,0,905
-4,-1,0,-3,-7,-6,-1,-8,0,906
-4,-1,0,-3,-6,-6,-1,-8,0,907
-4,-1,0,-3,-6,-5,-1,-8,0,908
-4,-1,0,-3,-6,-5,-1,-8,0,909
-4,-1,0,-2,-6,-5,-1,-8,0,910
-4,-1,0,-2,-6,-5,-1,-8,0,911
-4,-1,0,-2,-6,-5,-1,-8,0,912
-4,-1,0,-2,-6,-5,0,-8,0,913
-3,0,0,-2,-6,-5,0,-8,0,914
-3,0,0,-2,-6,-4,0,-8,0,915
-3,0,0,-2,-6,-4,0,-7,0,916
-3,0,0,-2,-5,-4,0,-7,0,917
-3,0,0,-2,-5,-4,0,-7,0,918
-3,0,0,-2,-5,-4,0,-7,0,919
-3,0,0,-2,-5,-4,0,-7,0,920
-3,0,0,-2,-5,-4,0,-7,0,921
-3,0,0,-2,-5,-4,0,-7,0,922
-4,0,0,-1,-5,-4,0,-7,0,923
-4,1,0,-1,-5,-4,0,-7,0,924
-4,1,0,-1,-4,-3,0,-7,0,925
-4,1,0,-1,-4,-3,0,-7,0,926
-4,1,0,-1,-4,-3,0,-7,0,927
-3,1,0,-1,-4,-3,0,-6,0,928
-3,1,0,-1,-4,-3,0,-6,0,929
-3,1,0,-1,-4,-2,0,-6,0,930
-3,1,0,-1,-3,-2,0,-6,0,931
-3,1,0,-1,-3,-2,0,-6,0,932
-3,1,0,-1,-3,-2,0,-6,0,933
-3,1,0,-1,-3,-2,0,-6,0,934
-3,1,0,-1,-3,-2,0,-6,0,935
-3,1,0,-1,-3,-2,0,-6,0,936
-3,1,0,-1,-3,-2,0,-6,0,937
-3,1,0,-1,-2,-1,0,-6,0,938
-3,1,0,-1,-2,-1,0,-6,0,939
-3,1,0,-1,-2,-1,0,-6,0,940
-3,1,0,-1,-2,-1,0,-6,0,941
-3,1,0,-1,-2,-1,0,-6,0,942
-3,1,0,-1,-2,-1,0,-6,0,943
-2,1,0,-1,-2,-1,0,-6,0,944
-2,1,0,-1,-2,-1,0,-6,0,945
-2,1,0,-1,-2,-1,0,-6,0,946
-2,1,0,0,-2,-1,0,-6,0,947
-2,1,0,0,-2,0,1,-5,0,948
-2,2,0,0,-2,0,1,-5,0,949
-2,2,0,0,-2,0,1,-5,0,950
-2,2,0,0,-2,0,1,-5,0,951
-2,2,0,0,-1,0,1,-5,0,952
-2,2,0,0,-1,0,1,-5,0,953
-2,2,0,0,-1,0,1,-5,0,954
-2,2,0,0,-1,0,1,-5,0,955
-2,2,0,0,-1,0,1,-5,0,956
-1,2,0,0,-1,0,1,-5,0,957
-1,2,0,0,-1,0,1,-5,0,958
-1,2,0,0,-1,0,1,-5,0,959
-1,2,0,0,-1,1,1,-5,0,960
-1,2,0,0,-1,1,1,-5,0,961
-1,2,0,0,0,1,1,-5,0,962
-1,2,0,0,0,1,2,-4,0,963
-1,2,0,0,0,1,2,-4,0,964
-1,3,0,0,0,1,2,-4,0,965
-1,3,0,0,0,1,2,-4,0,966
-1,3,0,0,0,1,2,-4,0,967
-1,3,0,0,0,2,2,-4,0,968
-1,3,0,0,1,2,2,-4,0,969
-1,3,0,0,1,2,2,-4,0,970
0,3,0,1,1,2,3,-4,0,971
0,3,1,1,1,2,3,-4,0,972
0,3,1,1,1,2,3,-4,0,973
0,3,1,1,1,2,3,-3,0,974
0,3,1,1,1,2,3,-3,0,975
0,3,1,1,1,2,3,-3,0,976
0,3,1,1,1,2,3,-3,0,977
0,3,1,1,1,2,3,-3,0,978
0,3,1,1,1,2,3,-3,0,979
0,3,1,1,1,2,3,-3,0,980
0,3,1,1,1,2,3,-3,0,981
0,3,1,1,1,2,3,-4,0,982
0,3,1,1,2,2,3,-4,0,983
0,3,1,1,2,2,3,-4,0,984
0,3,1,1,2,2,3,-4,0,985
0,3,1,1,2,2,4,-4,0,986
0,4,1,1,2,2,4,-4,0,987
0,4,1,1,2,2,4,-3,0,988
0,4,1,2,2,2,4,-3,0,989
0,4,1,2,2,2,4,-3,0,990
0,4,1,2,2,2,4,-3,0,991
0,4,1,2,2,2,4,-3,0,992
0,4,1,2,2,3,4,-3,0,993
0,4,1,2,2,3,4,-3,0,994
0,4,1,2,2,3,4,-2,0,995
0,5,1,2,3,3,4,-2,0,996
0,5,1,2,3,3,4,-2,0,997
0,5,1,3,3,3,4,-2,0,998
0,5,1,3,3,3,4,-2,0,999
0,5,1,3,3,3,4,-2,0,1000
0,5,1,3,3,3,4,-2,0,1001
0,5,1,3,3,3,4,-2,0,1002
0,5,1,3,3,4,4,-2,0,1003
0,5,1,3,3,4,4,-2,0,1004
0,5,1,3,3,4,4,-2,0,1005
0,5,1,3,3,3,4,-2,0,1006
0,5,1,3,2,3,4,-2,0,1007
1,5,1,2,2,3,4,-2,0,1008
1,4,1,2,2,3,4,-2,0,1009
1,4,1,2,1,3,4,-2,0,1010
1,3,1,2,1,2,4,-2,0,1011
1,3,1,2,0,2,3,-2,0,1012
1,2,0,2,0,2,3,-2,0,1013
1,2,0,2,0,2,4,-2,0,1014
1,2,0,2,0,3,4,-2,0,1015
1,2,0,2,1,4,5,-2,0,1016
2,2,0,3,2,5,7,-1,0,1017
3,3,1,4,4,7,9,0,0,1018
4,4,1,5,7,10,12,2,0,1019
6,7,1,7,10,14,16,4,0,1020
9,10,2,9,15,19,20,7,0,1021
12,14,4,12,21,24,26,10,0,1022
16,20,6,16,27,31,32,14,0,1023
21,26,8,21,35,39,39,19,0,1024
26,34,11,26,43,47,46,25,0,1025
32,42,14,32,51,55,54,31,0,1026
38,50,17,39,60,64,63,37,0,1027
46,60,21,46,70,74,72,44,0,1028
54,71,25,54,79,83,81,52,0,1029
62,82,28,61,89,92,90,60,0,1030
70,93,32,69,98,101,99,67,0,1031
78,103,36,76,107,109,107,75,0,1032
86,114,39,83,115,117,115,82,0,1033
93,124,43,90,122,123,122,89,0,1034
100,133,46,96,128,129,128,95,0,1035
106,141,48,101,133,134,133,100,0,1036
111,148,51,106,138,138,137,104,0,1037
115,154,52,109,141,142,141,108,0,1038
119,159,53,112,144,144,143,110,0,1039
121,162,54,114,145,145,145,112,0,1040
123,164,54,114,146,146,145,113,0,1041
123,165,54,114,146,146,145,112,0,1042
122,164,53,113,145,145,144,111,0,1043
120,161,51,110,144,143,142,109,0,1044
117,158,49,107,141,140,139,106,0,1045
113,153,47,103,138,136,136,102,0,1046
108,146,44,98,134,132,131,97,0,1047
102,139,41,92,128,126,126,92,0,1048
96,131,37,86,123,120,120,85,0,1049
89,121,34,79,116,112,113,79,0,1050
81,111,30,71,108,104,105,72,0,1051
73,100,26,64,100,96,97,65,0,1052
65,89,22,56,91,87,88,57,0,1053
57,78,19,48,82,77,79,50,0,1054
49,67,15,41,73,68,69,42,0,1055
41,57,12,34,63,58,60,35,0,1056
34,47,9,27,54,49,51,29,0,1057
27,39,7,21,46,41,43,23,0,1058
22,30,4,16,38,33,35,17,0,1059
17,23,2,12,30,26,27,12,0,1060
12,17,1,9,24,20,21,8,0,1061
9,11,0,6,18,15,15,4,0,1062
6,7,0,3,13,10,10,1,0,1063
3,4,0,1,9,7,6,-1,0,1064
2,1,-1,0,6,4,3,-2,0,1065
0,0,-1,0,3,2,1,-3,0,1066
0,-1,-1,0,2,1,0,-3,0,1067
0,-2,-1,0,1,0,0,-3,0,1068
0,-2,-1,0,0,0,-1,-3,0,1069
0,-2,-1,0,0,0,0,-2,0,1070
0,-1,-1,0,0,0,0,-1,0,1071
0,-1,0,0,0,1,0,-1,0,1072
0,0,0,0,0,1,1,0,0,1073
0,0,0,0,1,1,1,1,0,1074
0,0,0,0,1,2,2,2,0,1075
0,1,0,1,1,2,3,2,0,1076
0,1,0,1,2,2,3,3,0,1077
0,2,0,1,2,3,4,3,0,1078
0,2,0,1,2,3,4,3,0,1079
0,2,0,1,3,3,4,3,0,1080
0,3,0,1,3,4,4,4,0,1081
0,3,0,2,4,4,5,4,0,1082
0,4,0,2,5,5,5,4,0,1083
1,4,0,2,5,5,6,4,0,1084
2,5,0,2,6,6,6,4,0,1085
2,5,0,2,7,7,7,5,0,1086
3,6,0,2,8,8,7,5,0,1087
4,7,-1,2,8,9,8,6,0,1088
5,7,-1,2,7,9,8,6,0,1089
5,7,-2,1,6,8,8,6,0,1090
6,7,-3,0,4,7,7,5,0,1091
5,6,-4,-2,0,4,6,4,0,1092
5,5,-5,-4,-5,1,3,2,0,1093
3,2,-6,-6,-11,-5,-1,-1,0,1094
1,-1,-7,-9,-18,-11,-7,-5,0,1095
-2,-6,-7,-12,-26,-19,-14,-11,0,1096
-6,-12,-7,-15,-35,-28,-22,-18,0,1097
-11,-19,-6,-17,-42,-38,-31,-25,0,1098
-17,-27,-3,-18,-47,-46,-41,-34,0,1099
-24,-36,1,-17,-49,-53,-50,-42,0,1100
-30,-44,6,-12,-46,-56,-57,-49,0,1101
-36,-50,15,-4,-36,-54,-62,-54,0,1102
-40,-54,27,8,-18,-45,-62,-57,0,1103
-43,-54,41,24,9,-28,-57,-54,0,1104
-42,-49,57,46,46,-2,-44,-46,0,1105
-37,-38,74,73,93,36,-22,-31,0,1106
-27,-19,93,104,151,84,9,-8,0,1107
-12,7,113,138,218,145,49,24,0,1108
8,43,131,174,292,215,101,63,0,1109
34,87,147,209,370,295,162,112,0,1110
67,140,159,241,448,381,231,168,0,1111
104,200,166,268,524,470,306,230,0,1112
146,265,166,286,591,558,385,296,0,1113
190,334,158,293,647,642,464,364,0,1114
235,403,142,286,686,717,540,430,0,1115
280,470,116,264,706,779,609,493,0,1116
321,532,81,226,704,825,669,548,0,1117
359,586,38,171,679,852,715,594,0,1118
390,629,-12,101,630,858,747,628,0,1119
413,659,-69,18,560,842,761,648,0,1120
427,675,-130,-75,470,805,757,654,0,1121
432,676,-192,-175,366,748,736,645,0,1122
427,662,-253,-278,251,675,698,622,0,1123
412,633,-310,-378,132,588,646,585,0,1124
389,591,-359,-471,14,491,582,538,1024,1125
359,538,-400,-552,-98,390,509,482,0,1126
322,477,-430,-618,-198,289,431,419,0,1127
281,410,-448,-665,-283,191,351,354,0,1128
238,340,-453,-693,-349,102,272,288,0,1129
194,271,-446,-699,-396,23,198,224,0,1130
151,204,-428,-686,-422,-43,130,165,0,1131
111,143,-399,-653,-428,-94,71,112,0,1132
74,88,-363,-605,-417,-132,24,66,0,1133
42,42,-320,-545,-391,-155,-15,28,0,1134
17,4,-273,-475,-353,-166,-44,-2,0,1135
-4,-24,-226,-401,-307,-166,-63,-24,0,1136
-19,-45,-178,-326,-257,-158,-73,-39,0,1137
-30,-59,-134,-252,-206,-143,-77,-48,0,1138
-36,-65,-94,-185,-157,-124,-75,-52,0,1139
-39,-66,-59,-124,-111,-102,-70,-51,0,1140
-39,-64,-29,-72,-72,-81,-61,-48,0,1141
-36,-58,-6,-30,-38,-60,-52,-44,0,1142
-32,-50,9,3,-12,-42,-42,-38,0,1143
-28,-42,21,25,7,-27,-33,-32,0,1144
-23,-34,29,41,20,-15,-24,-26,0,1145
-18,-26,32,50,28,-6,-17,-21,0,1146
-13,-19,33,53,32,1,-12,-17,0,1147
-10,-14,31,53,32,4,-8,-14,0,1148
-7,-10,29,50,31,6,-5,-11,0,1149
-4,-7,25,45,28,7,-3,-9,0,1150
-3,-5,21,39,24,6,-2,-8,0,1151
-2,-3,18,34,20,5,-2,-8,0,1152
-1,-3,15,29,17,3,-2,-7,0,1153
-1,-3,13,24,14,1,-2,-7,0,1154
-1,-3,11,21,11,0,-2,-7,0,1155
-1,-3,9,18,10,-1,-2,-8,0,1156
-1,-4,9,16,9,-2,-3,-8,0,1157
-1,-4,8,14,8,-3,-3,-8,0,1158
-1,-5,8,14,8,-3,-3,-8,0,1159
-1,-5,8,13,8,-3,-3,-8,0,1160
-2,-5,8,13,8,-3,-3,-8,0,1161
-2,-5,8,13,8,-3,-3,-8,0,1162
-2,-5,8,13,8,-3,-3,-8,0,1163
-2,-5,8,13,8,-3,-3,-8,0,1164
-2,-5,8,13,8,-3,-3,-8,0,1165
-2,-5,8,13,9,-3,-3,-8,0,1166
-2,-5,8,13,9,-2,-3,-8,0,1167
-1,-4,8,13,9,-2,-3,-8,0,1168
-1,-4,8,13,9,-2,-3,-8,0,1169
-1,-4,8,13,9,-2,-3,-8,0,1170
-1,-4,8,13,9,-2,-3,-8,0,1171
-1,-4,8,13,9,-2,-3,-8,0,1172
-1,-4,8,13,9,-2,-3,-8,0,1173
-1,-4,8,13,9,-1,-3,-8,0,1174
-1,-4,8,13,9,-1,-3,-8,0,1175
-1,-4,8,13,9,-1,-3,-8,0,1176
-1,-3,8,13,9,-1,-2,-8,0,1177
-1,-3,8,13,9,-1,-2,-8,0,1178
0,-3,8,13,10,-1,-2,-8,0,1179
0,-3,8,13,10,-1,-2,-8,0,1180
0,-3,8,13,10,-1,-2,-8,0,1181
0,-3,8,13,10,-1,-2,-7,0,1182
0,-3,7,13,10,-1,-2,-7,0,1183
0,-3,7,13,10,-1,-2,-7,0,1184
0,-2,7,13,9,-1,-2,-7,0,1185
0,-2,7,12,9,-1,-2,-7,0,1186
0,-2,7,12,9,-1,-2,-7,0,1187
0,-2,7,12,8,-1,-2,-7,0,1188
0,-3,7,12,8,-1,-2,-7,0,1189
-1,-3,7,11,7,-1,-2,-7,0,1190
-1,-3,6,11,7,-2,-2,-7,0,1191
-1,-3,6,11,6,-2,-2,-7,0,1192
-1,-3,6,10,5,-2,-3,-7,0,1193
-1,-4,6,10,5,-2,-3,-7,0,1194
-1,-4,6,10,5,-2,-3,-7,0,1195
-1,-4,6,10,5,-2,-3,-7,0,1196
-1,-3,5,10,6,-1,-3,-7,0,1197
0,-3,5,11,8,0,-2,-6,0,1198
0,-2,6,11,11,1,-2,-5,0,1199
1,0,6,12,14,4,-1,-4,0,1200
2,1,6,14,19,7,0,-2,0,1201
4,3,7,15,25,11,2,0,0,1202
7,7,8,17,33,17,4,3,0,1203
10,11,10,20,42,23,7,7,0,1204
14,17,11,24,51,31,11,11,0,1205
19,23,14,27,63,40,15,16,0,1206
24,29,16,32,76,49,19,21,0,1207
29,37,19,37,90,60,25,27,0,1208
35,45,22,43,105,72,30,32,0,1209
42,54,25,49,122,85,37,39,0,1210
50,63,29,56,139,100,44,45,0,1211
57,74,32,63,157,114,51,53,0,1212
65,84,36,71,176,130,59,60,0,1213
74,95,40,80,195,146,68,67,0,1214
82,106,44,89,214,163,78,75,0,1215
90,118,48,98,233,179,87,83,0,1216
99,129,52,108,252,197,97,90,0,1217
107,140,55,118,271,214,108,98,0,1218
116,151,59,129,290,231,119,105,0,1219
124,162,62,140,309,248,130,113,0,1220
131,173,65,151,327,264,141,120,0,1221
139,183,68,162,344,280,152,128,0,1222
146,193,71,173,361,296,163,135,0,1223
153,203,74,184,377,311,174,141,0,1224
160,212,77,195,393,325,185,148,0,1225
167,221,79,205,408,339,196,154,0,1226
173,230,82,215,422,351,206,160,0,1227
179,238,84,225,435,363,215,166,0,1228
185,246,86,234,448,375,224,171,0,1229
190,253,88,242,460,385,232,176,0,1230
195,260,90,249,471,395,239,181,0,1231
200,267,92,255,481,403,246,185,0,1232
204,273,94,261,491,412,252,189,0,1233
208,279,95,266,500,419,257,192,0,1234
212,284,97,271,508,426,261,195,0,1235
215,288,98,275,516,432,265,198,0,1236
218,292,99,278,522,437,268,200,0,1237
220,295,100,280,528,442,271,202,0,1238
222,298,101,283,533,446,273,204,0,1239
224,300,102,285,536,449,275,205,0,1240
225,302,103,286,539,452,277,206,0,1241
226,303,104,287,541,453,278,207,0,1242
227,304,104,288,541,454,279,207,0,1243
227,304,104,289,540,454,280,207,0,1244
227,303,105,289,538,453,280,207,0,1245
227,302,105,289,534,451,280,206,0,1246
227,301,104,289,530,448,280,205,0,1247
226,299,104,288,523,444,279,204,0,1248
224,297,103,286,516,439,277,202,0,1249
222,294,102,284,507,432,275,200,0,1250
220,290,101,282,497,425,273,197,0,1251
216,286,100,279,486,416,270,194,0,1252
213,281,98,275,474,406,266,191,0,1253
208,276,95,270,461,395,262,187,0,1254
203,269,93,266,447,382,257,183,0,1255
198,262,90,260,432,369,252,178,0,1256
191,255,86,254,417,355,246,173,0,1257
184,246,82,247,400,340,239,167,0,1258
177,237,78,239,383,325,231,161,0,1259
169,227,74,231,365,308,223,154,0,1260
160,216,70,222,346,291,214,147,0,1261
151,205,65,212,326,273,205,139,0,1262
141,193,61,202,305,255,194,131,0,1263
131,180,56,190,284,236,183,122,0,1264
121,167,51,178,262,217,172,113,0,1265
111,153,47,166,240,197,159,103,0,1266
100,140,42,152,217,178,147,94,0,1267
90,126,37,139,194,158,134,84,0,1268
79,112,33,125,171,138,120,74,0,1269
69,98,28,111,149,119,106,65,0,1270
59,84,23,96,127,100,93,55,0,1271
49,71,19,83,105,82,79,46,0,1272
40,59,15,69,85,65,66,37,0,1273
31,47,11,57,66,49,54,30,0,1274
23,37,8,45,49,36,43,22,0,1275
16,26,4,34,34,22,32,15,0,1276
9,17,2,25,20,11,22,9,0,1277
3,9,0,16,8,0,13,3,0,1278
-1,2,-1,9,-2,-8,6,-2,0,1279
-5,-4,-3,4,-10,-15,-1,-7,0,1280
-8,-9,-4,-2,-17,-21,-6,-11,0,1281
-11,-13,-5,-6,-22,-25,-11,-14,0,1282
-13,-16,-5,-9,-26,-28,-14,-16,0,1283
-14,-19,-6,-11,-29,-30,-17,-18,0,1284
-15,-20,-6,-13,-30,-31,-18,-19,0,1285
-16,-22,-6,-14,-31,-31,-19,-20,0,1286
-16,-22,-6,-15,-31,-31,-20,-20,0,1287
-16,-22,-6,-15,-31,-30,-20,-20,0,1288
-16,-22,-5,-15,-30,-30,-20,-20,0,1289
-16,-22,-5,-15,-30,-29,-20,-19,0,1290
-16,-21,-5,-14,-29,-28,-19,-19,0,1291
-16,-21,-5,-13,-28,-27,-19,-18,0,1292
-15,-20,-5,-13,-27,-26,-18,-18,0,1293
-15,-19,-5,-12,-26,-25,-18,-17,0,1294
-15,-19,-5,-12,-26,-25,-18,-16,0,1295
-15,-18,-5,-11,-25,-24,-17,-16,0,1296
-15,-18,-5,-11,-25,-24,-17,-15,0,1297
-15,-17,-5,-10,-24,-24,-17,-15,0,1298
-15,-17,-5,-10,-24,-23,-16,-15,0,1299
-15,-16,-5,-10,-23,-23,-16,-15,0,1300
-15,-16,-4,-10,-23,-23,-15,-14,0,1301
-15,-15,-4,-10,-23,-22,-15,-14,0,1302
-15,-15,-4,-10,-22,-22,-14,-14,0,1303
-14,-14,-4,-10,-22,-21,-14,-14,0,1304
-14,-14,-4,-10,-21,-21,-13,-14,0,1305
-14,-13,-4,-9,-21,-20,-13,-14,0,1306
-13,-12,-4,-9,-20,-20,-12,-14,0,1307
-13,-12,-4,-9,-20,-19,-12,-14,0,1308
-13,-11,-4,-9,-19,-19,-11,-14,0,1309
-13,-11,-4,-9,-19,-18,-11,-14,0,1310
-12,-11,-4,-9,-18,-18,-10,-14,0,1311
-12,-10,-4,-9,-18,-18,-10,-13,0,1312
-12,-10,-4,-9,-18,-17,-10,-13,0,1313
-12,-10,-4,-9,-18,-17,-10,-13,0,1314
-12,-10,-3,-9,-18,-17,-10,-13,0,1315
-12,-10,-3,-9,-17,-17,-10,-13,0,1316
-12,-10,-3,-9,-17,-17,-9,-13,0,1317
-12,-10,-3,-9,-17,-17,-9,-13,0,1318
-12,-10,-3,-9,-17,-16,-9,-13,0,1319
-12,-9,-3,-9,-17,-16,-9,-13,0,1320
-12,-9,-3,-9,-17,-16,-9,-13,0,1321
-12,-9,-3,-9,-16,-16,-9,-13,0,1322
-12,-9,-3,-9,-16,-16,-9,-13,0,1323
-12,-9,-3,-9,-16,-16,-9,-13,0,1324
-12,-9,-3,-9,-16,-15,-9,-13,0,1325
-12,-9,-3,-9,-16,-15,-9,-13,0,1326
-12,-9,-3,-9,-16,-15,-8,-13,0,1327
-12,-9,-3,-9,-16,-15,-8,-13,0,1328
-12,-9,-2,-8,-16,-15,-8,-13,0,1329
-12,-9,-2,-8,-15,-15,-8,-13,0,1330
-12,-8,-2,-8,-15,-15,-8,-13,0,1331
-12,-8,-2,-8,-15,-15,-8,-13,0,1332
-12,-8,-2,-8,-15,-14,-8,-13,0,1333
-12,-8,-2,-8,-15,-14,-7,-13,0,1334
-12,-8,-2,-8,-15,-14,-7,-12,0,1335
-11,-8,-2,-8,-14,-14,-7,-12,0,1336
-11,-8,-2,-8,-14,-14,-7,-12,0,1337
-11,-7,-2,-7,-14,-14,-7,-12,0,1338
-11,-7,-2,-7,-14,-14,-7,-12,0,1339
-11,-7,-2,-7,-14,-14,-7,-12,0,1340
-11,-7,-2,-7,-14,-14,-7,-12,0,1341
-10,-7,-2,-7,-14,-14,-7,-12,0,1342
-10,-7,-2,-7,-14,-14,-7,-12,0,1343
-10,-7,-2,-7,-14,-14,-6,-12,0,1344
-10,-6,-2,-7,-14,-14,-6,-12,0,1345
-10,-6,-2,-7,-14,-13,-6,-12,0,1346
-10,-6,-2,-7,-14,-13,-6,-12,0,1347
-10,-6,-2,-7,-14,-13,-6,-12,0,1348
-10,-6,-2,-7,-14,-13,-6,-12,0,1349
-10,-6,-2,-7,-14,-13,-6,-12,0,1350
-10,-6,-2,-7,-13,-12,-6,-12,0,1351
-10,-6,-2,-7,-13,-12,-5,-11,0,1352
-10,-6,-1,-7,-13,-12,-5,-11,0,1353
-10,-5,-1,-7,-13,-12,-5,-11,0,1354
-10,-5,-1,-7,-13,-12,-5,-11,0,1355
-10,-5,-1,-7,-13,-12,-5,-11,0,1356
-9,-5,-1,-7,-12,-11,-5,-11,0,1357
-9,-5,-1,-7,-12,-11,-5,-11,0,1358
-9,-5,-1,-7,-12,-11,-5,-11,0,1359
-9,-5,-1,-6,-12,-11,-5,-11,0,1360
-9,-5,-1,-6,-12,-11,-5,-11,0,1361
-9,-5,-1,-6,-12,-11,-5,-11,0,1362
-9,-5,-1,-6,-12,-11,-4,-11,0,1363
-8,-5,-1,-6,-12,-11,-4,-11,0,1364
-8,-5,-1,-6,-12,-11,-4,-11,0,1365
-8,-5,-1,-6,-12,-11,-4,-11,0,1366
-8,-5,-1,-6,-12,-11,-4,-11,0,1367
-8,-5,-1,-6,-12,-11,-4,-11,0,1368
-8,-5,-1,-6,-11,-11,-4,-11,0,1369
-8,-4,-1,-6,-11,-11,-4,-10,0,1370
-8,-4,-1,-6,-11,-11,-4,-10,0,1371
-8,-4,-1,-6,-11,-11,-4,-10,0,1372
-8,-4,-1,-6,-11,-10,-4,-10,0,1373
-8,-4,-1,-6,-11,-10,-3,-10,0,1374
-8,-4,-1,-6,-10,-10,-3,-10,0,1375
-8,-4,-1,-5,-10,-10,-3,-10,0,1376
-8,-4,-1,-5,-10,-10,-3,-10,0,1377
-8,-3,-1,-5,-10,-10,-3,-10,0,1378
-8,-3,-1,-5,-10,-9,-3,-9,0,1379
-8,-3,-1,-5,-10,-9,-3,-9,0,1380
-8,-3,0,-5,-10,-9,-3,-9,0,1381
-8,-3,0,-5,-9,-9,-3,-9,0,1382
-7,-3,0,-4,-9,-9,-3,-9,0,1383
-7,-3,0,-4,-9,-9,-3,-9,0,1384
-7,-3,0,-4,-9,-8,-3,-9,0,1385
-7,-3,0,-4,-9,-8,-3,-9,0,1386
-7,-3,0,-4,-9,-8,-3,-9,0,1387
-7,-3,0,-4,-9,-8,-3,-9,0,1388
-6,-2,0,-5,-8,-8,-3,-9,0,1389
-6,-2,0,-5,-8,-8,-3,-9,0,1390
-6,-2,0,-5,-8,-8,-3,-9,0,1391
-6,-2,0,-5,-8,-8,-3,-9,0,1392
-6,-2,-1,-5,-8,-7,-3,-9,0,1393
-6,-2,-1,-5,-8,-7,-3,-9,0,1394
-6,-2,0,-5,-8,-7,-3,-9,0,1395
-6,-2,0,-5,-7,-7,-3,-9,0,1396
-6,-1,0,-4,-7,-7,-3,-9,0,1397
-6,-1,0,-4,-7,-7,-3,-9,0,1398
-6,-1,0,-4,-7,-7,-2,-9,0,1399
-6,-1,0,-4,-7,-6,-2,-9,0,1400
-6,-1,0,-4,-7,-6,-2,-9,0,1401
-6,-1,0,-4,-7,-6,-2,-9,0,1402
-6,-1,0,-4,-7,-6,-2,-8,0,1403
-6,-1,0,-4,-7,-6,-2,-8,0,1404
-6,-1,0,-3,-6,-6,-2,-8,0,1405
-6,-1,0,-3,-6,-6,-2,-8,0,1406
-6,-1,0,-3,-6,-6,-2,-8,0,1407
-6,-1,0,-3,-6,-6,-2,-8,0,1408
-6,-1,0,-3,-6,-5,-2,-8,0,1409
-6,-1,0,-3,-6,-5,-2,-8,0,1410
-6,-1,0,-3,-6,-5,-2,-8,0,1411
-6,-1,0,-3,-5,-5,-2,-8,0,1412
-5,-1,0,-3,-5,-5,-1,-8,0,1413
-5,-1,0,-3,-5,-5,-1,-8,0,1414
-5,0,0,-3,-5,-4,-1,-8,0,1415
-5,0,0,-3,-5,-4,-1,-8,0,1416
-5,0,0,-3,-5,-4,-1,-8,0,1417
-5,0,0,-3,-5,-4,-1,-8,0,1418
-5,0,0,-3,-5,-4,-1,-8,0,1419
-5,0,0,-3,-5,-4,-1,-8,0,1420
-5,0,0,-3,-5,-4,-1,-8,0,1421
-5,0,0,-3,-5,-4,-1,-8,0,1422
-5,0,0,-2,-5,-4,-1,-8,0,1423
-5,0,0,-2,-4,-4,-1,-8,0,1424
-4,0,0,-2,-4,-4,-1,-8,0,1425
-4,0,0,-2,-4,-4,0,-7,0,1426
-4,0,0,-2,-4,-4,0,-7,0,1427
-4,0,0,-2,-4,-4,0,-7,0,1428
-4,0,0,-2,-4,-4,0,-7,0,1429
-4,0,0,-2,-3,-4,0,-7,0,1430
-4,0,0,-2,-3,-3,0,-7,0,1431
-4,0,0,-2,-3,-3,0,-7,0,1432
-4,0,0,-2,-3,-3,0,-7,0,1433
-4,0,0,-2,-3,-3,0,-7,0,1434
-4,0,0,-2,-3,-3,0,-6,0,1435
-4,0,0,-2,-2,-3,0,-6,0,1436
-4,0,0,-2,-2,-3,0,-6,0,1437
-4,0,0,-2,-2,-2,0,-6,0,1438
-3,0,0,-2,-2,-2,0,-6,0,1439
-3,0,0,-1,-2,-2,0,-6,0,1440
-3,0,0,-1,-2,-2,0,-6,0,1441
-3,0,0,-1,-2,-2,1,-6,0,1442
-3,0,0,-1,-2,-1,1,-6,0,1443
-3,0,0,-1,-2,-1,1,-6,0,1444
-3,0,0,-1,-2,-1,1,-6,0,1445
-3,0,0,-1,-2,-1,1,-6,0,1446
-3,0,0,-1,-2,-1,1,-6,0,1447
-3,1,0,-1,-2,-1,1,-6,0,1448
-3,1,0,-1,-2,-1,1,-6,0,1449
-3,1,0,-1,-2,-1,1,-6,0,1450
-3,1,0,-1,-1,-1,1,-6,0,1451
-3,1,0,-1,-1,0,1,-6,0,1452
-3,1,0,-1,-1,0,1,-6,0,1453
-3,1,0,-1,-1,0,1,-6,0,1454
-3,1,0,0,-1,0,1,-6,0,1455
-3,1,0,0,-1,0,1,-5,0,1456
-3,1,0,0,-1,0,1,-5,0,1457
-2,1,0,0,-1,0,1,-5,0,1458
-2,1,0,0,-1,0,1,-5,0,1459
-2,1,0,0,-1,0,1,-5,0,1460
-2,1,0,0,-1,0,1,-5,0,1461
-2,1,0,0,-1,0,2,-4,0,1462
-2,1,0,0,0,0,2,-4,0,1463
-2,1,0,0,0,0,2,-4,0,1464
-2,1,1,0,0,1,2,-4,0,1465
-2,1,1,0,0,1,2,-4,0,1466
-2,1,1,0,0,1,2,-4,0,1467
-2,2,1,1,0,1,2,-4,0,1468
-1,2,1,1,0,1,2,-4,0,1469
-1,2,1,1,0,1,2,-4,0,1470
-1,2,1,1,0,1,2,-4,0,1471
-1,2,1,1,0,1,2,-4,0,1472
-1,2,1,1,0,1,2,-4,0,1473
-1,3,1,1,0,1,2,-4,0,1474
-1,3,1,1,0,1,2,-4,0,1475
-1,3,1,1,0,1,3,-4,0,1476
0,3,0,1,0,1,3,-4,0,1477
0,3,0,1,0,1,3,-4,0,1478
0,3,0,1,0,1,3,-4,0,1479
0,3,0,1,0,1,3,-4,0,1480
0,3,0,1,0,1,3,-4,0,1481
0,3,0,1,0,2,3,-4,0,1482
0,3,0,1,0,2,3,-3,0,1483
0,3,0,1,1,2,3,-3,0,1484
0,3,0,1,1,2,3,-3,0,1485
0,3,0,1,1,2,3,-3,0,1486
0,3,0,1,1,2,3,-3,0,1487
0,3,0,1,1,2,3,-3,0,1488
0,3,0,2,1,2,3,-3,0,1489
0,3,0,2,1,2,3,-3,0,1490
0,3,0,2,1,2,3,-3,0,1491
0,3,0,2,1,2,3,-3,0,1492
0,4,0,2,1,2,3,-3,0,1493
0,4,0,2,1,2,3,-3,0,1494
0,4,0,2,1,2,3,-3,0,1495
0,4,0,2,1,2,3,-3,0,1496
0,4,0,2,1,2,4,-3,0,1497
0,4,0,2,1,2,4,-3,0,1498
0,4,1,3,2,2,4,-3,0,1499
0,4,1,3,2,3,4,-3,0,1500
0,4,1,3,2,3,4,-2,0,1501
0,4,1,3,2,3,4,-2,0,1502
0,4,1,3,2,3,4,-2,0,1503
1,4,1,3,2,3,4,-2,0,1504
1,5,1,3,2,3,4,-2,0,1505
1,5,1,3,3,3,4,-2,0,1506
1,5,1,3,3,3,4,-2,0,1507
1,5,1,3,3,3,5,-2,0,1508
1,5,1,4,3,3,5,-2,0,1509
1,5,1,3,2,3,4,-2,0,1510
1,4,1,3,2,3,4,-2,0,1511
1,4,1,3,2,3,4,-2,0,1512
1,4,1,3,2,3,4,-2,0,1513
1,3,1,3,1,2,4,-2,0,1514
1,3,1,3,1,2,4,-2,0,1515
1,2,1,3,0,2,4,-3,0,1516
1,1,1,2,0,2,4,-3,0,1517
1,1,0,2,0,3,4,-3,0,1518
1,1,0,3,1,4,5,-2,0,1519
2,2,0,3,2,5,7,-2,0,1520
3,2,1,4,4,8,9,-1,0,1521
4,4,1,5,6,11,12,1,0,1522
6,6,1,7,10,14,16,3,0,1523
9,10,2,9,14,19,20,6,0,1524
12,14,3,12,20,25,26,9,0,1525
16,19,5,16,26,32,32,13,0,1526
21,26,7,21,34,39,39,18,0,1527
26,33,10,27,42,47,46,24,0,1528
32,42,13,33,50,55,55,30,0,1529
39,50,16,40,59,64,63,36,0,1530
46,60,20,47,69,73,73,44,0,1531
54,71,24,54,79,83,82,51,0,1532
62,82,28,62,88,92,91,59,0,1533
70,93,31,69,97,101,99,67,0,1534
78,103,35,77,106,109,108,74,0,1535
86,114,39,84,114,116,115,81,0,1536
93,124,42,90,121,123,122,88,0,1537
100,133,45,96,127,129,128,94,0,1538
106,141,48,101,132,134,133,99,0,1539
112,148,50,106,137,138,138,104,0,1540
116,154,52,110,140,141,141,107,0,1541
120,159,53,112,143,144,144,110,0,1542
122,162,54,114,144,145,145,111,0,1543
123,164,54,115,145,146,146,112,0,1544
124,164,54,114,145,146,146,112,0,1545
123,163,53,113,144,145,144,110,0,1546
121,161,51,111,142,143,142,108,0,1547
118,157,49,107,140,140,140,105,0,1548
114,152,47,103,137,136,136,101,0,1549
109,146,44,98,133,131,131,97,0,1550
103,138,41,92,128,126,126,91,0,1551
97,130,38,86,122,119,119,85,0,1552
90,121,34,79,115,112,112,79,0,1553
82,110,30,71,108,104,105,72,0,1554
74,100,26,64,100,95,96,65,0,1555
66,89,23,56,91,86,87,57,0,1556
57,78,19,48,82,77,78,50,0,1557
49,67,15,41,73,67,69,42,0,1558
41,56,12,34,63,58,60,35,0,1559
34,46,9,27,54,49,50,29,0,1560
27,38,6,21,46,41,43,23,0,1561
22,29,4,16,38,33,34,18,0,1562
17,22,2,12,30,26,27,13,0,1563
12,16,1,9,24,20,20,8,0,1564
8,10,0,6,18,14,14,5,0,1565
6,6,0,3,13,10,10,2,0,1566
3,3,0,1,9,6,6,0,0,1567
2,0,-1,0,6,4,3,-2,0,1568
1,0,-1,-1,3,2,0,-3,0,1569
0,-1,-1,-1,2,1,-1,-3,0,1570
0,-1,-1,-1,1,0,-2,-3,0,1571
0,-1,-1,-1,0,0,-2,-3,0,1572
0,-1,-1,-1,0,0,-2,-2,0,1573
0,0,-1,-1,0,0,-1,-2,0,1574
0,0,-1,-1,0,1,0,-1,0,1575
0,0,-1,0,1,1,1,0,0,1576
0,1,0,0,1,2,1,1,0,1577
0,1,0,0,1,2,2,1,0,1578
0,2,0,0,2,2,3,2,0,1579
0,2,0,1,2,2,3,2,0,1580
0,2,0,1,2,3,3,2,0,1581
0,3,0,1,2,3,4,3,0,1582
0,3,0,1,3,3,4,3,0,1583
0,3,0,1,3,4,4,3,0,1584
0,4,0,2,4,4,5,3,0,1585
0,4,0,2,4,5,5,4,0,1586
1,4,0,2,5,6,6,4,0,1587
2,5,0,2,6,7,6,4,0,1588
2,6,0,2,6,8,7,5,0,1589
3,6,0,2,7,8,8,5,0,1590
4,7,-1,2,7,9,8,5,0,1591
5,7,-1,2,7,9,9,6,0,1592
5,8,-2,1,5,9,8,6,0,1593
6,8,-3,0,3,7,8,5,0,1594
5,7,-4,-2,0,5,6,4,0,1595
5,5,-5,-4,-4,1,3,2,0,1596
3,3,-6,-7,-10,-5,0,0,0,1597
0,-1,-7,-10,-18,-12,-6,-5,0,1598
-2,-6,-8,-13,-26,-20,-13,-10,0,1599
-7,-12,-7,-16,-34,-29,-21,-17,0,1600
-12,-20,-6,-18,-41,-38,-30,-25,0,1601
-18,-28,-3,-18,-47,-47,-40,-33,0,1602
-24,-36,1,-17,-48,-53,-49,-41,0,1603
-31,-44,7,-13,-45,-56,-57,-49,0,1604
-37,-50,16,-5,-35,-54,-61,-54,0,1605
-41,-54,27,7,-17,-45,-62,-56,0,1606
-43,-54,41,24,9,-28,-56,-53,0,1607
-42,-49,57,46,46,-2,-43,-45,0,1608
-36,-37,75,73,93,36,-22,-30,0,1609
-26,-18,94,104,151,84,8,-7,0,1610
-11,9,114,138,218,145,49,23,0,1611
9,44,132,174,291,216,101,63,0,1612
35,89,148,209,369,295,162,111,0,1613
68,142,160,241,448,381,231,168,0,1614
106,201,167,267,523,470,306,230,0,1615
147,267,167,285,591,559,385,296,0,1616
191,335,159,292,647,643,464,364,0,1617
237,404,143,285,686,718,540,430,0,1618
281,471,117,263,706,780,610,493,0,1619
323,533,82,225,704,825,669,548,0,1620
360,587,38,170,678,852,716,594,0,1621
390,630,-12,100,630,858,747,628,0,1622
413,660,-70,17,559,842,761,648,0,1623
428,676,-131,-76,469,805,757,654,0,1624
432,677,-193,-176,365,748,736,644,0,1625
427,663,-254,-279,250,674,698,621,0,1626
412,634,-310,-379,131,587,646,584,0,1627
389,592,-360,-472,13,491,581,537,1024,1628
359,539,-401,-553,-98,389,508,481,0,1629
322,478,-431,-619,-198,288,430,418,0,1630
281,411,-448,-666,-283,190,350,353,0,1631
238,341,-454,-693,-349,101,271,287,0,1632
194,272,-447,-700,-396,23,197,223,0,1633
151,205,-428,-686,-421,-43,130,164,0,1634
111,144,-399,-653,-428,-95,71,110,0,1635
74,89,-362,-605,-416,-132,23,64,0,1636
42,43,-320,-544,-390,-156,-14,27,0,1637
17,5,-273,-475,-352,-167,-43,-2,0,1638
-3,-24,-225,-400,-307,-167,-62,-24,0,1639
-19,-45,-178,-325,-257,-158,-72,-39,0,1640
-30,-58,-134,-252,-206,-143,-76,-48,0,1641
-36,-65,-94,-184,-156,-124,-74,-51,0,1642
-39,-66,-59,-124,-111,-102,-69,-51,0,1643
-38,-63,-29,-72,-71,-81,-60,-48,0,1644
-36,-58,-6,-30,-38,-60,-51,-43,0,1645
-32,-50,10,3,-12,-42,-41,-38,0,1646
-27,-42,22,26,6,-27,-32,-32,0,1647
-22,-34,29,41,19,-15,-23,-26,0,1648
-17,-26,33,50,27,-6,-16,-21,0,1649
-13,-19,33,54,31,1,-11,-17,0,1650
-9,-14,32,53,31,4,-7,-13,0,1651
-6,-10,29,50,29,6,-4,-11,0,1652
-3,-6,26,45,26,6,-2,-9,0,1653
-2,-4,22,39,23,6,-1,-8,0,1654
-1,-3,19,34,19,4,-1,-8,0,1655
0,-3,16,28,16,3,-1,-7,0,1656
0,-3,13,24,13,1,-1,-7,0,1657
0,-3,11,20,11,0,-2,-7,0,1658
0,-3,10,17,9,-2,-2,-8,0,1659
0,-4,9,15,8,-3,-3,-8,0,1660
0,-4,9,14,7,-3,-3,-8,0,1661
-1,-5,8,13,7,-3,-3,-8,0,1662
-1,-5,8,13,7,-4,-3,-8,0,1663
-1,-5,8,13,7,-4,-3,-8,0,1664
-1,-5,8,12,7,-4,-3,-8,0,1665
-1,-5,8,12,7,-3,-3,-8,0,1666
-1,-5,8,13,7,-3,-3,-8,0,1667
-1,-5,8,13,7,-3,-3,-8,0,1668
-1,-5,8,13,8,-3,-3,-8,0,1669
-1,-5,8,13,8,-3,-3,-8,0,1670
0,-5,8,13,8,-3,-2,-8,0,1671
0,-4,8,13,8,-3,-2,-8,0,1672
0,-4,8,13,8,-3,-2,-8,0,1673
0,-4,8,13,8,-2,-2,-8,0,1674
0,-4,8,13,8,-2,-2,-8,0,1675
0,-4,8,13,8,-2,-2,-7,0,1676
0,-4,8,12,8,-2,-2,-7,0,1677
0,-4,8,12,8,-2,-2,-7,0,1678
0,-4,8,12,8,-2,-2,-7,0,1679
0,-4,8,12,8,-2,-2,-7,0,1680
0,-3,8,12,9,-2,-2,-7,0,1681
0,-3,8,12,9,-2,-2,-7,0,1682
0,-3,8,12,9,-1,-2,-7,0,1683
0,-3,8,12,9,-1,-1,-7,0,1684
0,-3,8,12,9,-1,-1,-7,0,1685
0,-3,8,12,9,-1,-1,-6,0,1686
0,-3,8,12,9,-1,-1,-6,0,1687
0,-3,8,12,9,-1,-1,-6,0,1688
0,-3,8,12,9,-1,-1,-6,0,1689
0,-3,8,12,9,-1,-1,-6,0,1690
0,-3,7,12,9,-1,-1,-6,0,1691
0,-3,7,11,8,-1,-1,-7,0,1692
0,-3,7,11,7,-2,-1,-7,0,1693
0,-3,7,11,7,-2,-1,-7,0,1694
0,-4,7,11,6,-2,-1,-7,0,1695
0,-4,7,11,5,-2,-1,-7,0,1696
0,-4,7,10,5,-3,-1,-7,0,1697
0,-4,6,10,5,-3,-1,-8,0,1698
0,-4,6,10,5,-2,-1,-7,0,1699
0,-4,6,10,6,-2,-1,-7,0,1700
0,-3,6,11,8,-1,-1,-6,0,1701
1,-2,6,11,10,1,0,-5,0,1702
2,-1,6,12,14,3,0,-4,0,1703
4,1,7,13,19,7,1,-2,0,1704
6,4,7,15,25,11,2,0,0,1705
9,8,8,17,33,16,5,2,0,1706
12,12,10,19,42,23,7,6,0,1707
16,17,11,23,51,30,11,10,0,1708
21,23,14,27,63,39,15,15,0,1709
25,30,16,31,76,49,19,20,0,1710
31,38,19,36,90,60,25,26,0,1711
37,46,22,42,105,72,31,32,0,1712
44,55,25,48,122,85,37,38,0,1713
51,65,29,55,139,99,44,45,0,1714
59,75,33,63,157,114,51,52,0,1715
67,85,37,71,176,130,60,59,0,1716
75,96,41,80,195,146,69,67,0,1717
84,107,45,89,214,163,78,74,0,1718
92,118,49,98,233,180,88,82,0,1719
101,129,53,108,253,197,98,90,0,1720
109,140,57,118,272,214,108,97,0,1721
118,151,60,129,291,231,119,105,0,1722
126,162,64,140,309,248,130,112,0,1723
133,173,67,151,327,265,141,120,0,1724
141,183,70,162,345,281,153,127,0,1725
148,193,73,173,362,296,164,134,0,1726
155,203,76,184,378,311,175,141,0,1727
162,212,78,195,393,325,186,147,0,1728
169,221,81,205,408,339,196,153,0,1729
175,230,83,215,422,351,206,159,0,1730
181,239,85,224,436,363,216,165,0,1731
187,246,87,233,448,374,224,170,0,1732
192,254,89,241,460,385,232,175,0,1733
197,261,91,249,471,394,240,180,0,1734
202,268,93,255,481,403,246,184,0,1735
206,274,95,261,491,411,252,188,0,1736
210,279,96,266,500,419,257,192,0,1737
213,284,98,270,508,426,262,195,0,1738
217,288,99,274,515,432,266,197,0,1739
219,292,100,277,522,437,269,200,0,1740
222,296,101,280,527,442,272,202,0,1741
224,298,102,282,532,446,274,204,0,1742
225,300,103,284,536,449,276,205,0,1743
227,302,104,286,538,452,278,206,0,1744
228,303,105,287,540,453,279,206,0,1745
229,304,105,288,540,454,280,206,0,1746
229,304,106,289,539,454,280,206,0,1747
229,304,106,289,537,453,281,206,0,1748
229,303,106,289,533,451,280,205,0,1749
228,302,105,288,529,448,280,204,0,1750
227,300,105,287,522,444,279,202,0,1751
226,297,104,286,515,438,278,201,0,1752
224,294,103,284,506,432,276,199,0,1753
221,291,101,281,496,424,273,196,0,1754
218,287,100,278,485,415,270,193,0,1755
214,282,98,274,473,405,267,190,0,1756
210,276,95,270,460,394,262,187,0,1757
205,270,92,265,446,382,257,183,0,1758
199,263,89,259,431,369,252,178,0,1759
193,255,86,253,415,355,246,173,0,1760
186,247,82,246,399,340,239,167,0,1761
178,237,78,238,381,324,231,161,0,1762
170,227,74,230,363,308,223,154,0,1763
162,217,70,221,344,291,214,146,0,1764
153,205,65,211,324,273,204,138,0,1765
143,193,61,201,304,254,194,130,0,1766
133,180,56,189,283,236,183,121,0,1767
123,167,52,177,261,216,171,112,0,1768
112,154,47,165,239,197,159,102,0,1769
102,140,42,152,216,177,146,92,0,1770
91,126,38,138,193,157,133,83,0,1771
81,112,33,124,170,138,120,73,0,1772
70,98,28,110,148,118,106,63,0,1773
60,84,24,96,126,100,92,54,0,1774
50,71,19,83,104,82,79,45,0,1775
41,59,15,70,84,64,66,36,0,1776
32,47,12,57,65,49,54,29,0,1777
25,36,8,46,48,35,43,21,0,1778
17,26,5,35,34,22,32,14,0,1779
11,17,2,25,20,10,22,8,0,1780
5,9,1,16,8,0,13,2,0,1781
0,2,-1,9,-2,-9,5,-2,0,1782
-3,-4,-3,3,-10,-16,0,-6,0,1783
-7,-10,-4,-2,-17,-21,-6,-10,0,1784
-9,-14,-5,-6,-22,-26,-10,-13,0,1785
-11,-17,-5,-9,-26,-29,-13,-16,0,1786
-13,-19,-6,-12,-29,-31,-16,-18,0,1787
-14,-21,-6,-13,-30,-32,-18,-19,0,1788
-14,-22,-6,-15,-31,-32,-19,-20,0,1789
-15,-23,-6,-15,-31,-32,-19,-20,0,1790
-15,-23,-6,-15,-31,-31,-19,-20,0,1791
-15,-23,-6,-15,-31,-30,-19,-20,0,1792
-14,-22,-6,-15,-30,-29,-19,-20,0,1793
-14,-22,-5,-14,-29,-28,-18,-19,0,1794
-14,-21,-5,-13,-28,-27,-18,-18,0,1795
-14,-21,-5,-13,-27,-27,-17,-18,0,1796
-14,-20,-5,-12,-27,-26,-17,-17,0,1797
-14,-20,-5,-12,-26,-25,-17,-16,0,1798
-14,-19,-5,-11,-26,-25,-16,-16,0,1799
-14,-19,-5,-11,-25,-24,-16,-15,0,1800
-14,-18,-4,-11,-24,-24,-15,-15,0,1801
-14,-18,-4,-10,-24,-24,-15,-15,0,1802
-14,-17,-4,-10,-23,-23,-14,-14,0,1803
-14,-17,-4,-10,-23,-23,-14,-14,0,1804
-13,-16,-4,-10,-22,-22,-13,-14,0,1805
-13,-16,-4,-10,-22,-22,-13,-14,0,1806
-13,-15,-4,-10,-21,-21,-12,-14,0,1807
-13,-14,-4,-10,-20,-21,-11,-14,0,1808
-12,-14,-4,-10,-20,-20,-11,-14,0,1809
-12,-13,-4,-10,-19,-20,-10,-14,0,1810
-12,-13,-4,-10,-19,-19,-10,-14,0,1811
-11,-12,-4,-10,-18,-19,-9,-14,0,1812
-11,-12,-4,-10,-18,-18,-9,-14,0,1813
-11,-11,-4,-10,-18,-18,-9,-14,0,1814
-11,-11,-4,-10,-18,-18,-9,-14,0,1815
-11,-11,-4,-10,-18,-18,-8,-14,0,1816
-11,-11,-4,-10,-17,-17,-8,-13,0,1817
-10,-11,-4,-9,-17,-17,-8,-13,0,1818
-10,-11,-3,-9,-17,-17,-8,-13,0,1819
-10,-11,-3,-9,-17,-17,-8,-13,0,1820
-10,-10,-3,-9,-17,-17,-8,-13,0,1821
-10,-10,-3,-9,-17,-17,-8,-13,0,1822
-10,-10,-3,-9,-17,-17,-8,-13,0,1823
-10,-10,-3,-9,-16,-16,-8,-12,0,1824
-10,-10,-2,-9,-16,-16,-7,-12,0,1825
-10,-10,-2,-9,-16,-16,-7,-12,0,1826
-10,-10,-2,-9,-16,-16,-7,-12,0,1827
-10,-10,-2,-9,-16,-16,-7,-12,0,1828
-10,-9,-2,-9,-16,-16,-7,-12,0,1829
-10,-9,-2,-9,-16,-16,-7,-12,0,1830
-11,-9,-2,-9,-16,-16,-7,-12,0,1831
-10,-9,-3,-9,-16,-16,-7,-12,0,1832
-10,-9,-3,-9,-16,-16,-7,-12,0,1833
-10,-9,-3,-9,-16,-16,-6,-12,0,1834
-10,-9,-3,-9,-16,-16,-6,-12,0,1835
-10,-9,-3,-8,-16,-16,-6,-12,0,1836
-10,-9,-3,-8,-16,-15,-6,-12,0,1837
-10,-8,-3,-8,-16,-15,-6,-12,0,1838
-10,-8,-3,-8,-16,-15,-6,-12,0,1839
-10,-8,-3,-8,-16,-15,-6,-12,0,1840
-9,-8,-3,-8,-15,-15,-6,-12,0,1841
-9,-8,-3,-8,-15,-15,-6,-12,0,1842
-9,-8,-3,-8,-15,-15,-5,-12,0,1843
-9,-8,-3,-7,-15,-15,-5,-12,0,1844
-9,-8,-2,-7,-15,-14,-5,-12,0,1845
-9,-8,-2,-7,-15,-14,-5,-12,0,1846
-9,-8,-2,-7,-15,-14,-5,-11,0,1847
-9,-8,-2,-7,-14,-14,-5,-11,0,1848
-9,-8,-2,-7,-14,-14,-5,-11,0,1849
-9,-8,-2,-7,-14,-14,-5,-11,0,1850
-9,-8,-2,-7,-14,-14,-5,-11,0,1851
-9,-8,-2,-7,-14,-13,-5,-11,0,1852
-9,-8,-2,-7,-14,-13,-5,-11,0,1853
-9,-7,-2,-7,-13,-13,-5,-11,0,1854
-9,-7,-2,-7,-13,-13,-5,-11,0,1855
-9,-7,-2,-7,-13,-13,-5,-11,0,1856
-9,-7,-2,-7,-13,-13,-5,-11,0,1857
-9,-7,-2,-7,-13,-13,-4,-11,0,1858
-9,-7,-2,-6,-13,-13,-4,-11,0,1859
-9,-7,-2,-6,-13,-13,-4,-11,0,1860
-8,-7,-2,-6,-12,-12,-4,-11,0,1861
-8,-7,-2,-6,-12,-12,-4,-11,0,1862
-8,-7,-2,-6,-12,-12,-4,-11,0,1863
-8,-6,-2,-6,-12,-12,-4,-11,0,1864
-8,-6,-1,-6,-12,-12,-4,-11,0,1865
-8,-6,-1,-6,-12,-12,-4,-11,0,1866
-8,-6,-1,-6,-11,-12,-4,-11,0,1867
-8,-6,-1,-6,-11,-12,-4,-11,0,1868
-8,-6,-1,-6,-11,-12,-3,-11,0,1869
-8,-6,-1,-6,-11,-11,-3,-11,0,1870
-8,-5,-1,-6,-11,-11,-3,-11,0,1871
-8,-5,-1,-6,-11,-11,-3,-11,0,1872
-8,-5,-1,-6,-10,-11,-3,-11,0,1873
-8,-5,-1,-5,-10,-11,-3,-10,0,1874
-8,-5,-1,-5,-10,-11,-3,-10,0,1875
-8,-5,-1,-5,-10,-11,-3,-10,0,1876
-7,-5,-1,-5,-10,-10,-3,-10,0,1877
-7,-5,-1,-5,-10,-10,-3,-10,0,1878
-7,-4,-1,-5,-10,-10,-3,-10,0,1879
-7,-4,-1,-5,-10,-10,-2,-10,0,1880
-7,-4,-1,-5,-9,-10,-2,-10,0,1881
-7,-4,-1,-5,-9,-10,-2,-9,0,1882
-7,-4,-1,-5,-9,-9,-2,-9,0,1883
-7,-4,-1,-5,-9,-9,-2,-9,0,1884
-7,-4,-1,-5,-9,-9,-2,-9,0,1885
-7,-4,-1,-5,-9,-9,-2,-9,0,1886
-7,-3,-1,-5,-9,-9,-2,-9,0,1887
-6,-3,-1,-5,-9,-9,-2,-9,0,1888
-6,-3,-1,-5,-8,-9,-2,-9,0,1889
-6,-3,-1,-5,-8,-9,-2,-9,0,1890
-6,-3,-1,-5,-8,-9,-2,-9,0,1891
-6,-3,-1,-5,-8,-9,-2,-9,0,1892
-6,-3,-1,-5,-8,-9,-2,-9,0,1893
-6,-3,-1,-5,-8,-9,-2,-9,0,1894
-6,-3,-1,-5,-8,-9,-2,-9,0,1895
-6,-3,-1,-4,-8,-8,-2,-9,0,1896
-6,-3,-1,-4,-8,-8,-2,-9,0,1897
-6,-3,-1,-4,-8,-8,-2,-9,0,1898
-6,-3,0,-4,-8,-8,-2,-9,0,1899
-6,-3,0,-4,-8,-8,-1,-9,0,1900
-6,-3,0,-4,-8,-8,-1,-9,0,1901
-6,-3,0,-4,-7,-8,-1,-9,0,1902
-6,-3,0,-4,-7,-7,-1,-8,0,1903
-6,-3,0,-4,-7,-7,-1,-8,0,1904
-6,-3,0,-4,-7,-7,-1,-8,0,1905
-6,-3,0,-4,-7,-7,-1,-8,0,1906
-6,-3,0,-4,-7,-7,-1,-8,0,1907
-6,-2,0,-4,-7,-7,-1,-8,0,1908
-6,-2,0,-4,-7,-7,-1,-8,0,1909
-5,-2,0,-3,-7,-7,-1,-8,0,1910
-5,-2,0,-3,-6,-7,-1,-8,0,1911
-5,-2,0,-3,-6,-7,-1,-8,0,1912
-5,-2,0,-3,-6,-6,-1,-8,0,1913
-5,-2,0,-3,-6,-6,-1,-8,0,1914
-5,-2,0,-3,-6,-6,-1,-7,0,1915
-5,-2,0,-3,-6,-6,0,-7,0,1916
-5,-2,0,-3,-6,-6,0,-7,0,1917
-5,-2,0,-3,-5,-6,0,-7,0,1918
-5,-2,0,-3,-5,-5,0,-7,0,1919
-5,-2,0,-3,-5,-5,0,-7,0,1920
-5,-2,0,-3,-5,-5,0,-7,0,1921
-5,-2,0,-3,-5,-5,0,-6,0,1922
-5,-2,0,-3,-5,-5,0,-6,0,1923
-5,-2,0,-3,-5,-5,0,-6,0,1924
-5,-2,0,-3,-4,-5,0,-6,0,1925
-5,-2,0,-3,-4,-4,0,-6,0,1926
-5,-2,1,-3,-4,-4,0,-6,0,1927
-5,-1,1,-2,-4,-4,0,-6,0,1928
-5,-1,1,-2,-4,-4,0,-6,0,1929
-5,-1,1,-2,-4,-4,0,-6,0,1930
-5,-1,1,-2,-4,-4,0,-6,0,1931
-5,-1,1,-2,-4,-4,0,-6,0,1932
-5,-1,1,-2,-4,-4,0,-6,0,1933
-5,-1,1,-2,-4,-4,0,-6,0,1934
-4,-1,1,-2,-4,-3,0,-6,0,1935
-4,-1,1,-2,-4,-3,0,-6,0,1936
-4,-1,1,-2,-3,-3,0,-6,0,1937
-4,0,1,-2,-3,-3,0,-6,0,1938
-4,0,1,-2,-3,-3,0,-6,0,1939
-4,0,1,-2,-3,-3,0,-6,0,1940
-4,0,1,-2,-3,-3,0,-5,0,1941
-3,0,1,-2,-3,-3,0,-5,0,1942
-3,0,1,-2,-2,-2,0,-5,0,1943
-3,0,1,-2,-2,-2,0,-5,0,1944
-3,0,1,-2,-2,-2,0,-5,0,1945
-3,0,1,-2,-2,-2,0,-5,0,1946
-3,0,1,-2,-2,-2,0,-5,0,1947
-3,0,1,-2,-1,-2,1,-5,0,1948
-2,0,1,-2,-1,-2,1,-5,0,1949
-2,0,1,-2,-1,-1,1,-5,0,1950
-2,0,1,-1,-1,-1,1,-5,0,1951
-2,0,1,-1,-1,-1,1,-5,0,1952
-2,0,1,-1,-1,-1,1,-5,0,1953
-2,0,1,-1,-1,-1,1,-5,0,1954
-2,0,1,-1,0,-1,2,-5,0,1955
-2,1,1,0,0,-1,2,-5,0,1956
-2,1,1,0,0,-1,2,-5,0,1957
-2,1,1,0,0,-1,2,-5,0,1958
-2,1,1,0,0,-1,2,-4,0,1959
-2,1,1,0,0,-1,2,-4,0,1960
-2,1,1,0,0,-1,2,-4,0,1961
-2,1,1,0,0,0,2,-4,0,1962
-2,1,1,0,0,0,2,-4,0,1963
-2,1,1,0,0,0,2,-4,0,1964
-2,2,1,0,0,0,2,-4,0,1965
-2,2,1,0,0,0,2,-4,0,1966
-1,2,1,0,0,0,2,-4,0,1967
-1,2,1,1,0,0,2,-4,0,1968
-1,2,1,1,0,1,2,-4,0,1969
-1,2,1,1,0,1,2,-4,0,1970
-1,2,1,1,0,1,2,-4,0,1971
-1,2,1,1,0,1,2,-4,0,1972
-1,2,1,1,0,1,2,-4,0,1973
-1,2,1,1,0,1,2,-4,0,1974
-1,2,1,1,0,1,2,-4,0,1975
-1,2,1,1,0,1,2,-4,0,1976
-1,2,1,1,0,1,2,-4,0,1977
-1,2,1,1,0,1,2,-4,0,1978
-1,2,1,1,0,1,3,-4,0,1979
0,2,1,1,0,1,3,-3,0,1980
0,2,1,1,0,1,3,-3,0,1981
0,2,1,1,1,1,3,-3,0,1982
0,2,2,1,1,2,3,-3,0,1983
0,2,2,1,1,2,3,-3,0,1984
0,2,2,1,1,2,3,-3,0,1985
0,2,2,1,1,2,3,-3,0,1986
0,2,2,1,1,2,4,-3,0,1987
0,2,2,1,1,2,4,-2,0,1988
0,2,2,1,1,2,4,-2,0,1989
0,2,2,1,1,2,4,-2,0,1990
0,2,2,1,1,2,4,-2,0,1991
0,3,2,2,1,2,4,-2,0,1992
0,3,2,2,1,2,4,-2,0,1993
0,3,2,2,1,2,4,-2,0,1994
0,3,2,2,1,2,4,-2,0,1995
0,3,2,2,1,2,4,-3,0,1996
0,3,2,2,1,2,4,-2,0,1997
0,3,2,2,1,3,4,-2,0,1998
0,3,2,2,1,3,4,-2,0,1999
0,3,2,2,1,3,4,-2,0,2000
0,4,2,2,1,3,4,-2,0,2001
0,4,2,2,1,3,4,-2,0,2002
0,4,2,2,1,3,4,-2,0,2003
0,4,2,2,1,3,4,-2,0,2004
0,4,2,2,2,3,4,-2,0,2005
0,4,2,2,2,3,4,-2,0,2006
0,4,2,2,2,3,4,-1,0,2007
0,4,2,2,2,3,4,-1,0,2008
0,4,2,3,2,3,4,-1,0,2009
0,4,2,3,2,3,4,-1,0,2010
1,4,2,3,2,3,4,-1,0,2011
1,4,2,3,2,3,4,-1,0,2012
1,4,2,3,2,3,4,-1,0,2013
1,3,2,3,1,3,4,-1,0,2014
1,3,2,2,1,2,4,-2,0,2015
1,3,1,2,1,2,3,-2,0,2016
1,2,1,2,0,2,3,-2,0,2017
1,2,1,2,0,2,3,-2,0,2018
1,1,1,2,0,2,3,-2,0,2019
2,1,1,2,0,2,3,-2,0,2020
2,1,1,2,0,2,4,-2,0,2021
2,1,1,2,0,3,5,-2,0,2022
3,1,1,2,1,5,6,-1,0,2023
4,2,1,3,3,7,8,0,0,2024
5,4,2,5,5,10,11,1,0,2025
7,6,2,7,9,14,15,3,0,2026
9,9,3,9,14,19,20,6,0,2027
13,14,4,12,19,25,25,9,0,2028
17,19,6,16,26,31,32,14,0,2029
21,25,8,21,33,39,39,19,0,2030
26,33,11,27,41,47,46,24,0,2031
32,41,14,33,49,55,54,31,0,2032
39,50,18,40,59,64,63,36,0,2033
47,60,21,47,69,73,72,44,0,2034
55,70,25,54,78,83,81,51,0,2035
63,81,29,62,88,92,90,59,0,2036
71,92,33,70,97,101,99,67,0,2037
79,103,37,77,106,109,107,74,0,2038
87,113,40,84,114,116,115,81,0,2039
94,123,43,90,121,123,122,88,0,2040
101,133,46,96,127,129,128,94,0,2041
107,141,49,102,132,134,133,99,0,2042
112,148,51,106,137,138,137,103,0,2043
117,154,53,110,140,141,141,107,0,2044
120,158,54,112,142,144,143,110,0,2045
123,162,55,114,144,145,145,111,0,2046
124,164,55,114,145,146,145,112,0,2047
124,164,54,114,145,146,145,111,0,2048
123,163,53,113,144,145,144,110,0,2049
121,161,52,110,142,143,142,108,0,2050
118,157,50,107,140,140,139,105,0,2051
114,152,47,103,136,136,135,101,0,2052
109,146,44,98,132,131,130,96,0,2053
104,139,41,92,127,126,125,91,0,2054
97,130,38,86,121,119,119,85,0,2055
90,121,34,79,114,112,112,79,0,2056
82,111,31,72,107,104,104,72,0,2057
74,100,27,64,99,95,96,64,0,2058
66,89,23,56,90,86,87,57,0,2059
58,78,19,49,81,77,78,50,0,2060
50,67,16,41,72,67,68,42,0,2061
42,56,13,34,62,58,59,35,0,2062
35,46,10,28,53,49,50,29,0,2063
28,38,7,22,45,41,42,23,0,2064
23,29,5,16,37,34,34,17,0,2065
18,22,3,12,29,26,26,12,0,2066
13,16,2,9,23,20,20,8,0,2067
9,10,1,6,17,15,14,4,0,2068
6,6,0,3,12,11,9,1,0,2069
4,3,-1,1,8,7,5,0,0,2070
2,1,-1,0,5,5,2,-1,0,2071
1,-1,-1,-1,3,3,0,-2,0,2072
1,-2,-1,-1,1,1,0,-2,0,2073
0,-2,-1,-1,0,1,-1,-2,0,2074
0,-2,-1,-1,0,0,-1,-2,0,2075
0,-2,-1,-1,0,0,-1,-2,0,2076
0,-1,-1,-1,0,0,0,-1,0,2077
0,-1,-1,-1,0,1,0,0,0,2078
0,0,-1,0,0,1,1,0,0,2079
0,0,-1,0,1,1,2,0,0,2080
0,1,0,0,1,1,2,1,0,2081
0,1,0,0,1,2,3,1,0,2082
0,2,0,0,1,2,4,1,0,2083
0,2,0,1,1,2,4,2,0,2084
0,3,0,1,2,2,4,2,0,2085
0,3,0,1,2,3,4,2,0,2086
1,3,0,1,2,3,5,2,0,2087
1,4,0,1,3,3,5,3,0,2088
2,4,0,1,4,4,5,3,0,2089
2,5,0,1,4,5,6,3,0,2090
3,6,0,1,5,6,6,4,0,2091
4,6,0,2,6,7,7,4,0,2092
5,7,-1,2,6,8,8,4,0,2093
5,8,-1,1,7,8,8,5,0,2094
6,8,-2,1,6,8,8,5,0,2095
7,8,-2,0,5,8,8,5,0,2096
7,8,-3,0,2,6,7,4,0,2097
7,7,-4,-2,-1,4,6,3,0,2098
6,6,-6,-4,-6,0,3,1,0,2099
4,3,-7,-6,-12,-5,-1,-1,0,2100
2,-1,-7,-9,-20,-12,-6,-6,0,2101
-2,-6,-8,-12,-28,-20,-13,-11,0,2102
-6,-12,-7,-15,-36,-29,-22,-18,0,2103
-12,-20,-6,-17,-43,-38,-31,-26,0,2104
-18,-28,-3,-18,-48,-47,-40,-34,0,2105
-24,-36,1,-17,-50,-53,-50,-42,0,2106
-31,-44,7,-12,-46,-56,-57,-50,0,2107
-36,-51,16,-4,-36,-54,-62,-55,0,2108
-41,-54,27,7,-18,-45,-62,-57,0,2109
-43,-54,41,23,9,-28,-56,-55,0,2110
-42,-49,57,45,46,-1,-44,-46,0,2111
-36,-38,75,72,93,36,-22,-31,0,2112
-26,-19,94,103,151,85,9,-8,0,2113
-11,8,114,137,218,145,50,22,0,2114
10,43,132,173,292,216,101,62,0,2115
36,88,148,208,370,296,163,111,0,2116
69,141,160,240,449,382,232,167,0,2117
107,201,167,267,524,471,307,229,0,2118
148,266,167,285,592,559,386,295,0,2119
193,335,159,291,647,643,465,363,0,2120
238,404,142,285,686,718,541,430,0,2121
282,471,116,262,706,780,611,492,0,2122
324,533,81,224,704,825,670,547,0,2123
361,586,37,169,678,852,716,593,0,2124
391,629,-14,99,629,857,747,627,0,2125
414,659,-71,16,559,841,761,647,0,2126
428,675,-132,-76,469,804,757,653,0,2127
433,676,-194,-176,364,747,736,644,0,2128
427,662,-255,-279,250,673,698,620,0,2129
413,633,-311,-379,130,586,645,584,0,2130
390,591,-361,-472,13,489,581,536,1024,2131
359,538,-402,-553,-99,388,508,480,0,2132
322,476,-431,-618,-199,287,430,418,0,2133
281,409,-449,-666,-284,189,349,352,0,2134
238,340,-454,-693,-350,100,271,286,0,2135
194,270,-447,-699,-396,22,197,223,0,2136
151,204,-428,-685,-421,-44,129,163,0,2137
111,142,-399,-652,-428,-96,71,110,0,2138
74,88,-362,-604,-416,-133,23,64,0,2139
43,42,-319,-543,-390,-156,-15,27,0,2140
17,4,-273,-474,-352,-167,-44,-2,0,2141
-4,-25,-225,-399,-306,-167,-63,-24,0,2142
-20,-46,-178,-324,-256,-158,-73,-39,0,2143
-31,-59,-134,-251,-205,-143,-77,-48,0,2144
-37,-66,-94,-183,-155,-123,-75,-52,0,2145
-40,-67,-59,-123,-110,-102,-70,-52,0,2146
-39,-64,-30,-71,-71,-81,-61,-49,0,2147
-37,-59,-7,-29,-38,-60,-52,-44,0,2148
-33,-51,9,2,-12,-42,-42,-38,0,2149
-28,-43,21,25,7,-27,-33,-32,0,2150
-23,-35,29,40,20,-15,-24,-27,0,2151
-19,-28,32,49,28,-5,-17,-22,0,2152
-14,-21,33,52,32,1,-12,-18,0,2153
-10,-16,31,52,32,5,-8,-14,0,2154
-7,-11,28,49,30,6,-5,-12,0,2155
-5,-8,25,44,27,7,-3,-10,0,2156
-3,-6,21,38,24,6,-2,-9,0,2157
-2,-5,18,33,20,4,-2,-8,0,2158
-1,-4,15,27,16,3,-2,-8,0,2159
-1,-4,13,23,14,1,-2,-8,0,2160
-1,-4,11,19,11,0,-2,-8,0,2161
-1,-5,9,17,10,-2,-2,-8,0,2162
-1,-5,9,15,9,-3,-3,-8,0,2163
-1,-5,8,13,8,-3,-3,-9,0,2164
-1,-6,8,13,8,-4,-3,-9,0,2165
-1,-6,8,12,7,-4,-3,-9,0,2166
-1,-6,8,12,7,-4,-3,-9,0,2167
-1,-6,8,12,8,-4,-3,-9,0,2168
-1,-6,8,12,8,-4,-3,-9,0,2169
-1,-6,8,12,8,-4,-2,-9,0,2170
-1,-5,8,12,8,-3,-2,-9,0,2171
-1,-5,8,12,8,-3,-2,-9,0,2172
-1,-5,8,12,8,-3,-2,-8,0,2173
-1,-5,8,12,8,-3,-2,-8,0,2174
-1,-5,8,12,8,-2,-2,-8,0,2175
-1,-5,8,12,8,-2,-2,-8,0,2176
-1,-5,8,13,9,-2,-2,-8,0,2177
-1,-4,8,13,9,-2,-2,-8,0,2178
-1,-4,7,13,9,-2,-2,-8,0,2179
-1,-4,7,13,9,-2,-2,-8,0,2180
-1,-4,7,13,9,-1,-2,-8,0,2181
-1,-4,7,13,9,-1,-2,-8,0,2182
-1,-4,7,13,9,-1,-2,-8,0,2183
0,-4,7,13,9,-1,-1,-8,0,2184
0,-4,7,13,10,-1,-1,-8,0,2185
0,-4,7,13,10,-1,-1,-8,0,2186
0,-4,7,12,10,-1,-1,-8,0,2187
0,-4,7,12,10,-1,-1,-8,0,2188
0,-4,7,12,10,-1,-1,-8,0,2189
0,-4,7,12,10,-1,-1,-8,0,2190
0,-4,6,12,10,-1,-1,-8,0,2191
0,-4,6,12,10,-1,-1,-8,0,2192
0,-4,6,12,9,-1,-1,-7,0,2193
0,-4,6,11,9,-1,-1,-8,0,2194
0,-4,6,11,8,-1,-1,-8,0,2195
0,-4,6,11,8,-1,-1,-8,0,2196
0,-5,6,11,7,-2,-1,-8,0,2197
-1,-5,6,10,7,-2,-1,-8,0,2198
-1,-5,6,10,6,-2,-1,-8,0,2199
-1,-5,6,10,6,-2,-2,-8,0,2200
-1,-5,5,10,6,-2,-2,-8,0,2201
-1,-5,5,10,6,-2,-2,-8,0,2202
-1,-5,5,10,7,-2,-2,-7,0,2203
-1,-4,5,10,9,0,-1,-7,0,2204
0,-3,5,11,11,1,-1,-6,0,2205
1,-2,6,12,15,4,0,-5,0,2206
3,1,6,13,20,7,1,-3,0,2207
5,3,7,14,26,11,3,0,0,2208
8,7,8,17,33,17,5,2,0,2209
11,11,10,19,42,23,8,5,0,2210
15,17,11,23,52,31,11,9,0,2211
20,23,13,26,63,40,15,14,0,2212
24,30,16,31,76,49,19,19,0,2213
30,37,18,36,91,60,25,25,0,2214
37,45,22,41,106,73,30,31,0,2215
44,54,25,48,122,86,37,37,0,2216
51,64,28,55,140,100,44,44,0,2217
59,74,32,62,158,115,51,51,0,2218
67,85,36,70,176,130,59,59,0,2219
75,96,40,79,195,146,68,66,0,2220
84,107,44,88,214,163,77,74,0,2221
92,118,48,97,234,180,87,82,0,2222
101,130,52,107,253,197,97,89,0,2223
109,141,55,117,272,214,108,97,0,2224
117,152,59,128,291,231,119,104,0,2225
125,163,63,139,309,248,130,112,0,2226
133,173,66,150,327,265,141,119,0,2227
141,183,69,161,345,281,152,127,0,2228
148,193,72,173,362,296,164,134,0,2229
155,203,75,184,378,311,175,140,0,2230
162,213,78,195,393,325,186,147,0,2231
169,222,80,205,408,339,196,153,0,2232
175,230,83,215,422,351,206,159,0,2233
181,239,85,225,436,363,216,165,0,2234
187,247,87,233,448,374,224,170,0,2235
192,254,89,241,460,385,233,175,0,2236
197,261,91,249,471,394,240,180,0,2237
202,268,92,255,482,403,246,184,0,2238
206,274,94,261,491,411,252,188,0,2239
210,279,96,266,500,419,257,191,0,2240
214,284,97,270,508,425,262,194,0,2241
217,288,98,274,515,431,266,197,0,2242
219,292,99,277,522,437,269,199,0,2243
222,296,101,280,527,441,272,201,0,2244
223,298,102,282,532,445,274,203,0,2245
225,300,102,284,536,449,276,204,0,2246
226,302,103,285,538,451,277,205,0,2247
227,303,104,287,540,453,279,205,0,2248
228,304,104,288,540,453,280,205,0,2249
228,304,105,288,539,453,280,205,0,2250
229,303,105,288,537,452,280,205,0,2251
228,303,105,288,533,450,280,204,0,2252
228,301,105,288,529,447,280,203,0,2253
227,299,104,287,522,443,279,201,0,2254
225,297,103,285,515,437,277,200,0,2255
223,294,102,283,506,431,275,198,0,2256
221,291,101,281,497,423,273,195,0,2257
217,286,99,278,486,414,270,192,0,2258
214,281,97,274,474,404,266,189,0,2259
209,276,95,269,461,393,262,186,0,2260
204,270,92,264,447,381,257,182,0,2261
198,263,89,259,432,368,252,177,0,2262
192,255,86,252,416,354,246,172,0,2263
185,246,82,245,400,339,239,166,0,2264
177,237,78,238,383,324,231,160,0,2265
169,227,74,229,365,307,223,153,0,2266
161,216,70,220,346,290,214,146,0,2267
152,205,65,210,326,272,205,138,0,2268
142,193,61,200,305,254,195,129,0,2269
132,180,56,189,284,235,184,121,0,2270
122,167,51,177,262,216,172,111,0,2271
112,154,46,164,240,197,160,102,0,2272
101,140,42,151,217,177,147,92,0,2273
91,126,37,138,194,157,134,83,0,2274
80,112,32,124,171,138,120,73,0,2275
70,98,28,110,148,119,107,63,0,2276
60,85,23,96,126,100,93,54,0,2277
50,72,19,82,105,82,80,45,0,2278
41,59,15,69,85,65,67,36,0,2279
32,47,11,57,66,49,54,29,0,2280
24,37,8,45,49,35,43,21,0,2281
17,27,4,34,34,22,32,14,0,2282
11,17,2,25,20,10,22,7,0,2283
5,9,0,16,8,0,14,2,0,2284
0,2,-2,9,-2,-9,6,-3,0,2285
-4,-4,-3,3,-10,-16,-1,-7,0,2286
-8,-9,-5,-1,-17,-21,-6,-11,0,2287
-11,-14,-5,-5,-22,-25,-10,-14,0,2288
-12,-17,-6,-9,-26,-28,-14,-16,0,2289
-14,-20,-6,-11,-29,-30,-16,-18,0,2290
-15,-21,-7,-13,-30,-31,-18,-20,0,2291
-15,-22,-7,-14,-31,-31,-19,-20,0,2292
-16,-23,-6,-15,-31,-31,-20,-21,0,2293
-16,-23,-6,-15,-31,-31,-20,-21,0,2294
-16,-23,-6,-15,-30,-30,-20,-20,0,2295
-16,-22,-6,-14,-30,-29,-19,-20,0,2296
-15,-22,-6,-14,-29,-28,-19,-19,0,2297
-15,-21,-6,-13,-28,-27,-18,-19,0,2298
-15,-21,-6,-12,-27,-26,-18,-18,0,2299
-15,-20,-5,-12,-27,-26,-18,-17,0,2300
-15,-19,-5,-11,-26,-25,-17,-17,0,2301
-15,-19,-5,-11,-26,-24,-17,-16,0,2302
-15,-18,-5,-10,-25,-24,-17,-16,0,2303
-15,-18,-5,-10,-25,-24,-16,-16,0,2304
-15,-17,-5,-9,-25,-23,-16,-15,0,2305
-15,-17,-5,-9,-24,-23,-16,-15,0,2306
-14,-16,-5,-9,-24,-22,-15,-15,0,2307
-14,-15,-5,-9,-23,-22,-15,-15,0,2308
-14,-15,-5,-9,-23,-21,-14,-15,0,2309
-14,-14,-5,-9,-22,-21,-13,-15,0,2310
-13,-14,-5,-9,-22,-20,-13,-15,0,2311
-13,-13,-4,-9,-21,-20,-12,-15,0,2312
-13,-12,-4,-9,-21,-19,-12,-14,0,2313
-12,-12,-4,-9,-20,-19,-11,-14,0,2314
-12,-11,-4,-9,-19,-18,-11,-14,0,2315
-12,-11,-4,-9,-19,-18,-10,-14,0,2316
-12,-11,-4,-9,-19,-18,-10,-14,0,2317
-12,-10,-4,-9,-18,-18,-10,-14,0,2318
-12,-10,-4,-9,-18,-18,-9,-14,0,2319
-12,-10,-4,-9,-18,-17,-9,-14,0,2320
-12,-10,-4,-9,-17,-17,-9,-14,0,2321
-12,-10,-4,-9,-17,-17,-9,-13,0,2322
-12,-10,-4,-9,-17,-17,-9,-13,0,2323
-12,-10,-4,-8,-17,-17,-9,-13,0,2324
-12,-10,-4,-8,-17,-17,-9,-13,0,2325
-12,-10,-4,-8,-17,-16,-8,-13,0,2326
-12,-10,-4,-8,-17,-16,-8,-13,0,2327
-12,-10,-3,-8,-16,-16,-8,-13,0,2328
-12,-10,-3,-8,-16,-16,-8,-13,0,2329
-12,-10,-3,-8,-16,-16,-8,-12,0,2330
-12,-9,-3,-7,-16,-16,-8,-12,0,2331
-11,-9,-3,-7,-16,-16,-8,-12,0,2332
-11,-9,-3,-7,-16,-16,-8,-12,0,2333
-11,-9,-3,-8,-16,-16,-8,-12,0,2334
-11,-9,-3,-8,-16,-16,-8,-13,0,2335
-11,-9,-3,-8,-16,-16,-8,-13,0,2336
-11,-9,-3,-8,-16,-16,-8,-13,0,2337
-11,-9,-3,-8,-16,-16,-8,-13,0,2338
-11,-9,-3,-8,-16,-16,-7,-13,0,2339
-11,-9,-3,-8,-16,-15,-7,-12,0,2340
-11,-9,-3,-8,-15,-15,-7,-12,0,2341
-11,-9,-3,-8,-15,-15,-7,-12,0,2342
-11,-9,-3,-7,-15,-15,-7,-12,0,2343
-11,-8,-3,-7,-15,-15,-7,-12,0,2344
-11,-8,-2,-7,-15,-15,-7,-12,0,2345
-11,-8,-2,-7,-14,-15,-6,-12,0,2346
-11,-8,-2,-7,-14,-14,-6,-12,0,2347
-11,-8,-2,-7,-14,-14,-6,-12,0,2348
-10,-8,-2,-7,-14,-14,-6,-12,0,2349
-10,-7,-2,-7,-14,-14,-6,-12,0,2350
-10,-7,-2,-7,-14,-14,-5,-12,0,2351
-10,-7,-2,-7,-14,-13,-5,-12,0,2352
-10,-7,-2,-7,-13,-13,-5,-12,0,2353
-10,-7,-2,-7,-13,-13,-5,-12,0,2354
-10,-6,-2,-6,-13,-13,-5,-12,0,2355
-10,-6,-2,-6,-13,-13,-5,-12,0,2356
-10,-6,-2,-6,-13,-13,-5,-12,0,2357
-10,-6,-2,-6,-13,-13,-5,-12,0,2358
-10,-6,-2,-6,-13,-13,-5,-12,0,2359
-10,-6,-2,-6,-13,-12,-5,-12,0,2360
-9,-6,-2,-6,-13,-12,-5,-11,0,2361
-9,-6,-2,-6,-13,-12,-5,-11,0,2362
-9,-6,-2,-6,-12,-12,-5,-11,0,2363
-9,-6,-2,-6,-12,-12,-5,-11,0,2364
-9,-6,-2,-6,-12,-12,-4,-11,0,2365
-9,-6,-2,-6,-12,-12,-4,-11,0,2366
-9,-6,-2,-6,-12,-12,-4,-11,0,2367
-9,-6,-2,-6,-12,-12,-4,-11,0,2368
-9,-6,-2,-6,-12,-11,-4,-11,0,2369
-9,-5,-2,-6,-12,-11,-4,-11,0,2370
-9,-5,-2,-6,-12,-11,-4,-11,0,2371
-8,-5,-2,-6,-12,-11,-4,-10,0,2372
-8,-5,-2,-6,-12,-11,-4,-10,0,2373
-8,-5,-2,-6,-12,-11,-3,-10,0,2374
-8,-5,-2,-6,-12,-11,-3,-10,0,2375
-8,-5,-1,-6,-11,-11,-3,-10,0,2376
-8,-5,-1,-5,-11,-11,-3,-10,0,2377
-8,-5,-1,-5,-11,-11,-3,-10,0,2378
-8,-5,-1,-5,-11,-11,-3,-10,0,2379
-8,-5,-1,-5,-11,-10,-3,-10,0,2380
-8,-5,-1,-5,-11,-10,-3,-10,0,2381
-8,-5,-1,-5,-11,-10,-3,-10,0,2382
-8,-5,-1,-5,-10,-10,-3,-10,0,2383
-8,-5,-1,-5,-10,-10,-3,-10,0,2384
-8,-5,-1,-4,-10,-10,-3,-10,0,2385
-8,-5,-1,-4,-10,-9,-2,-9,0,2386
-8,-4,-1,-4,-10,-9,-2,-9,0,2387
-8,-4,-1,-4,-10,-9,-2,-9,0,2388
-8,-4,-1,-4,-10,-9,-2,-9,0,2389
-8,-4,-1,-4,-9,-9,-2,-9,0,2390
-8,-4,-1,-4,-9,-8,-2,-9,0,2391
-8,-4,-1,-4,-9,-8,-2,-9,0,2392
-8,-4,-1,-4,-9,-8,-2,-9,0,2393
-8,-4,-1,-4,-9,-8,-2,-9,0,2394
-8,-4,-1,-4,-9,-8,-2,-9,0,2395
-8,-3,-1,-4,-9,-8,-2,-9,0,2396
-7,-3,-1,-4,-8,-8,-2,-9,0,2397
-7,-3,-1,-4,-8,-8,-2,-8,0,2398
-7,-3,-1,-4,-8,-8,-2,-8,0,2399
-7,-3,0,-4,-8,-8,-1,-8,0,2400
-7,-3,0,-4,-8,-7,-1,-8,0,2401
-7,-3,0,-4,-8,-7,-1,-8,0,2402
-7,-3,0,-4,-7,-7,-1,-8,0,2403
-7,-3,0,-4,-7,-7,-1,-8,0,2404
-7,-2,0,-4,-7,-7,-1,-8,0,2405
-7,-2,0,-4,-7,-7,-1,-8,0,2406
-7,-2,0,-4,-7,-7,-1,-8,0,2407
-7,-2,0,-3,-6,-6,-1,-8,0,2408
-7,-2,0,-3,-6,-6,0,-8,0,2409
-7,-2,0,-3,-6,-6,0,-7,0,2410
-6,-2,0,-3,-6,-6,0,-7,0,2411
-6,-2,0,-3,-6,-6,0,-7,0,2412
-6,-2,0,-3,-6,-6,0,-7,0,2413
-6,-2,0,-3,-6,-6,0,-7,0,2414
-6,-2,0,-2,-6,-6,0,-7,0,2415
-6,-2,0,-2,-6,-6,0,-7,0,2416
-6,-2,0,-2,-5,-6,0,-7,0,2417
-6,-2,0,-2,-5,-6,0,-7,0,2418
-6,-2,0,-2,-5,-5,0,-7,0,2419
-6,-2,0,-2,-5,-5,0,-7,0,2420
-6,-2,0,-2,-5,-5,0,-7,0,2421
-5,-2,0,-2,-5,-5,0,-7,0,2422
-5,-2,0,-2,-5,-5,0,-7,0,2423
-5,-2,0,-2,-5,-5,0,-7,0,2424
-5,-2,0,-2,-5,-4,0,-7,0,2425
-5,-2,1,-2,-4,-4,0,-7,0,2426
-5,-2,1,-2,-4,-4,0,-7,0,2427
-5,-1,1,-2,-4,-4,0,-7,0,2428
-5,-1,1,-2,-4,-4,1,-7,0,2429
-5,-1,1,-2,-4,-4,1,-7,0,2430
-5,-1,1,-1,-3,-4,1,-7,0,2431
-5,-1,1,-1,-3,-3,1,-7,0,2432
-5,-1,1,-1,-3,-3,1,-7,0,2433
-5,0,1,-1,-3,-3,1,-7,0,2434
-5,0,1,-1,-3,-3,1,-6,0,2435
-4,0,1,-1,-3,-3,1,-6,0,2436
-4,0,1,-1,-3,-3,1,-6,0,2437
-4,0,0,-1,-2,-3,1,-6,0,2438
-4,0,0,-1,-2,-2,1,-6,0,2439
-4,0,0,-1,-2,-2,1,-6,0,2440
-4,0,0,-1,-2,-2,1,-6,0,2441
-4,0,0,-1,-2,-2,1,-6,0,2442
-4,0,0,-1,-2,-2,1,-6,0,2443
-4,0,0,-1,-2,-2,1,-5,0,2444
-4,0,0,-1,-2,-1,1,-5,0,2445
-4,0,0,-1,-2,-1,1,-5,0,2446
-4,0,0,-1,-1,-1,2,-5,0,2447
-4,0,0,-1,-1,-1,2,-5,0,2448
-4,0,0,-1,-1,-1,2,-5,0,2449
-4,0,0,-1,-1,-1,2,-5,0,2450
-4,0,0,0,-1,-1,2,-5,0,2451
-4,0,0,0,-1,-1,2,-5,0,2452
-4,0,0,0,-1,-1,2,-5,0,2453
-4,0,0,0,-1,-1,1,-5,0,2454
-4,1,0,0,-1,-1,1,-5,0,2455
-3,1,0,0,-1,-1,2,-5,0,2456
-3,1,0,0,-1,-1,2,-5,0,2457
-3,1,0,0,-1,-1,2,-5,0,2458
-3,1,0,0,-1,-1,2,-5,0,2459
-3,1,0,0,-1,-1,2,-5,0,2460
-3,1,0,0,-1,-1,2,-5,0,2461
-3,1,0,0,-1,0,2,-5,0,2462
-3,1,0,0,-1,0,2,-5,0,2463
-3,1,1,0,-1,0,2,-5,0,2464
-3,1,1,0,0,0,2,-4,0,2465
-3,1,1,0,0,0,2,-4,0,2466
-3,1,1,0,0,0,2,-4,0,2467
-3,1,1,0,0,0,3,-4,0,2468
-3,1,1,0,0,1,3,-4,0,2469
-3,1,1,0,0,1,3,-4,0,2470
-3,1,1,0,1,1,3,-4,0,2471
-3,2,1,0,1,1,3,-4,0,2472
-3,2,1,0,1,1,3,-4,0,2473
-3,2,1,0,1,1,3,-4,0,2474
-3,2,1,0,1,1,3,-4,0,2475
-3,2,1,0,1,1,3,-4,0,2476
-3,2,1,0,1,1,4,-4,0,2477
-2,2,1,0,1,1,4,-3,0,2478
-2,2,1,0,1,1,4,-3,0,2479
-2,3,1,0,1,1,4,-3,0,2480
-2,3,1,0,1,1,4,-3,0,2481
-2,3,1,0,1,1,4,-3,0,2482
-2,3,1,1,1,1,4,-3,0,2483
-2,3,1,1,1,2,4,-3,0,2484
-2,3,1,1,1,2,4,-3,0,2485
-1,3,1,1,1,2,4,-3,0,2486
-1,3,1,1,1,2,4,-3,0,2487
-1,3,1,1,1,2,4,-3,0,2488
-1,3,1,1,1,2,4,-3,0,2489
-1,3,1,1,1,2,4,-3,0,2490
-1,3,1,1,2,2,4,-3,0,2491
-1,3,1,1,2,2,4,-3,0,2492
-1,4,1,1,2,2,4,-3,0,2493
-1,4,1,1,2,2,4,-2,0,2494
-1,4,1,1,2,2,4,-2,0,2495
0,4,1,1,2,2,4,-2,0,2496
0,4,1,1,2,2,4,-2,0,2497
0,4,1,1,2,2,4,-2,0,2498
0,4,1,2,2,2,4,-2,0,2499
0,4,1,2,2,2,4,-2,0,2500
0,4,1,2,3,2,4,-2,0,2501
0,4,1,2,3,3,4,-2,0,2502
0,4,1,2,3,3,4,-2,0,2503
0,4,1,2,3,3,5,-2,0,2504
0,4,1,2,3,3,5,-2,0,2505
0,4,1,2,3,3,5,-2,0,2506
0,4,1,2,3,3,5,-2,0,2507
0,4,1,3,3,3,5,-2,0,2508
0,4,1,3,3,3,5,-2,0,2509
0,4,1,3,3,3,5,-2,0,2510
0,4,1,3,3,3,5,-2,0,2511
0,4,1,3,3,3,5,-2,0,2512
0,4,1,3,3,3,5,-2,0,2513
0,4,1,3,3,3,5,-2,0,2514
0,4,1,3,3,3,5,-2,0,2515
0,4,1,2,3,3,4,-2,0,2516
0,4,1,2,3,3,4,-2,0,2517
1,3,1,2,2,3,4,-2,0,2518
1,3,1,2,2,2,4,-2,0,2519
1,2,1,2,1,2,4,-2,0,2520
1,2,1,1,1,2,4,-2,0,2521
1,1,1,1,1,2,4,-2,0,2522
1,1,1,1,1,2,4,-2,0,2523
1,0,1,1,1,3,5,-2,0,2524
1,0,1,1,1,4,6,-1,0,2525
2,1,1,2,2,5,7,-1,0,2526
3,1,1,3,4,8,10,0,0,2527
4,3,1,4,7,11,13,1,0,2528
6,5,2,6,10,14,16,3,0,2529
9,9,2,9,15,19,21,6,0,2530
12,13,4,12,21,25,27,10,0,2531
16,18,5,16,27,31,33,14,0,2532
21,25,8,21,35,39,40,19,0,2533
25,32,10,26,43,47,47,24,0,2534
32,41,13,32,51,55,56,30,0,2535
39,49,17,39,60,64,65,36,0,2536
46,59,20,46,70,73,74,44,0,2537
54,70,24,54,80,83,83,51,0,2538
62,81,28,61,89,92,92,59,0,2539
70,92,32,69,98,101,100,66,0,2540
79,103,36,76,107,109,108,74,0,2541
86,114,39,83,115,116,116,81,0,2542
94,123,43,90,122,123,123,88,0,2543
101,133,46,96,128,129,129,94,0,2544
107,141,48,101,133,134,134,99,0,2545
112,148,51,106,138,138,138,104,0,2546
116,154,52,109,141,142,142,107,0,2547
120,159,54,112,144,144,144,110,0,2548
122,162,54,114,145,146,146,111,0,2549
123,164,54,114,146,146,146,112,0,2550
123,164,54,114,146,146,146,112,0,2551
122,163,53,113,145,145,145,111,0,2552
120,160,52,110,144,143,143,109,0,2553
117,157,50,107,141,140,141,105,0,2554
113,151,48,103,138,136,137,102,0,2555
108,145,45,98,134,132,132,97,0,2556
102,138,42,92,129,126,127,91,0,2557
96,129,38,85,123,119,121,85,0,2558
89,120,35,78,116,112,114,79,0,2559
81,110,31,71,108,104,106,72,0,2560
73,99,27,63,100,95,97,65,0,2561
65,88,23,55,91,86,88,57,0,2562
57,77,20,48,82,77,79,50,0,2563
49,66,16,40,73,67,70,42,0,2564
41,56,13,33,63,58,60,35,0,2565
34,46,10,26,54,49,51,29,0,2566
27,38,7,20,46,41,43,23,0,2567
22,29,5,15,38,33,35,18,0,2568
17,22,3,11,31,26,27,13,0,2569
13,15,2,8,24,20,21,8,0,2570
9,10,1,5,18,14,15,5,0,2571
6,6,0,3,13,10,10,2,0,2572
4,3,0,1,9,7,6,0,0,2573
2,1,-1,0,6,4,4,0,0,2574
1,-1,-1,0,4,2,1,-1,0,2575
0,-2,-1,-1,2,1,0,-2,0,2576
0,-2,-1,-1,1,0,-1,-2,0,2577
0,-2,-1,-1,0,0,-1,-1,0,2578
0,-2,-1,-1,0,0,-1,-1,0,2579
0,-1,-1,0,0,0,0,0,0,2580
0,-1,-1,0,0,0,0,0,0,2581
0,0,-1,0,0,0,0,0,0,2582
0,0,-1,0,0,0,0,1,0,2583
0,1,0,1,0,0,1,1,0,2584
0,1,0,1,0,1,2,2,0,2585
0,2,0,1,1,1,2,2,0,2586
0,2,0,1,1,1,2,2,0,2587
0,3,0,1,1,1,3,2,0,2588
0,3,0,1,1,2,3,3,0,2589
1,3,0,1,2,2,3,3,0,2590
1,4,0,2,2,2,4,3,0,2591
1,4,0,2,3,3,4,3,0,2592
2,5,0,2,4,4,5,4,0,2593
3,6,0,2,5,5,5,4,0,2594
3,6,0,2,6,5,6,4,0,2595
4,7,0,2,6,6,7,5,0,2596
5,8,0,2,6,7,8,5,0,2597
5,8,-1,2,6,7,8,6,0,2598
6,8,-2,1,5,6,8,5,0,2599
6,8,-3,0,2,5,7,5,0,2600
6,7,-4,-2,0,2,5,4,0,2601
5,5,-5,-4,-5,-1,3,2,0,2602
3,3,-6,-7,-11,-6,-1,-1,0,2603
1,0,-7,-10,-19,-13,-6,-6,0,2604
-2,-5,-8,-13,-27,-21,-13,-11,0,2605
-6,-12,-7,-15,-35,-30,-22,-18,0,2606
-11,-19,-6,-17,-42,-39,-31,-26,0,2607
-17,-28,-3,-18,-47,-48,-40,-34,0,2608
-24,-36,0,-17,-49,-54,-49,-43,0,2609
-30,-44,6,-12,-45,-57,-57,-50,0,2610
-36,-50,15,-4,-35,-55,-61,-55,0,2611
-40,-54,27,8,-17,-46,-61,-57,0,2612
-42,-54,41,25,9,-28,-55,-54,0,2613
-40,-48,57,47,47,-1,-42,-46,0,2614
-35,-36,75,74,94,36,-20,-31,0,2615
-25,-17,94,105,152,85,10,-7,0,2616
-9,9,113,139,220,145,51,24,0,2617
11,45,131,175,294,217,103,64,0,2618
37,90,147,210,372,297,164,113,0,2619
70,143,159,242,450,383,234,169,0,2620
108,203,166,268,525,472,309,232,0,2621
150,269,166,286,592,560,388,298,0,2622
194,337,158,292,647,644,467,366,0,2623
239,406,141,285,686,718,543,432,0,2624
283,473,115,263,705,780,612,494,0,2625
324,535,79,224,702,825,671,549,0,2626
361,588,35,169,676,851,717,594,0,2627
392,631,-15,98,626,856,747,628,0,2628
414,660,-72,14,555,839,761,648,0,2629
428,676,-133,-79,465,801,757,653,0,2630
433,676,-195,-179,360,744,735,643,0,2631
427,661,-256,-282,245,670,696,619,0,2632
412,632,-312,-382,126,582,644,583,0,2633
389,589,-361,-474,8,485,579,535,1024,2634
358,536,-401,-555,-102,384,506,478,0,2635
322,475,-431,-620,-202,283,427,416,0,2636
281,407,-448,-667,-286,185,347,351,0,2637
237,338,-453,-694,-352,96,269,285,0,2638
193,268,-445,-699,-397,18,195,221,0,2639
151,202,-426,-685,-422,-46,127,162,0,2640
111,141,-397,-652,-428,-97,69,109,0,2641
74,86,-360,-603,-416,-134,22,63,0,2642
43,41,-317,-542,-389,-157,-16,26,0,2643
17,3,-271,-473,-351,-168,-44,-3,0,2644
-3,-25,-223,-398,-305,-167,-63,-25,0,2645
-18,-45,-176,-323,-255,-159,-73,-40,0,2646
-29,-58,-132,-250,-204,-143,-76,-49,0,2647
-35,-65,-92,-183,-155,-124,-75,-53,0,2648
-38,-66,-58,-122,-110,-103,-69,-52,0,2649
-38,-63,-29,-71,-70,-81,-60,-49,0,2650
-35,-57,-6,-29,-38,-61,-51,-45,0,2651
-31,-50,9,3,-12,-43,-41,-39,0,2652
-26,-42,21,25,6,-28,-32,-33,0,2653
-21,-33,28,41,19,-16,-24,-27,0,2654
-17,-26,31,49,27,-7,-17,-22,0,2655
-12,-19,31,53,30,0,-11,-18,0,2656
-9,-14,30,52,31,2,-7,-15,0,2657
-6,-10,27,49,29,4,-4,-12,0,2658
-3,-7,24,44,26,4,-2,-11,0,2659
-2,-5,20,39,22,4,-1,-10,0,2660
-1,-4,17,33,18,2,-1,-9,0,2661
0,-3,14,28,15,1,-1,-9,0,2662
0,-3,12,24,12,0,-1,-9,0,2663
0,-3,10,20,10,-1,-2,-9,0,2664
0,-3,9,17,8,-2,-2,-9,0,2665
0,-4,8,15,7,-3,-2,-9,0,2666
0,-4,8,14,7,-4,-3,-9,0,2667
0,-4,7,13,6,-4,-3,-9,0,2668
0,-4,7,13,6,-4,-3,-9,0,2669
0,-4,7,13,6,-4,-3,-9,0,2670
0,-4,7,13,7,-4,-3,-9,0,2671
0,-4,7,13,7,-4,-3,-9,0,2672
0,-4,7,13,7,-4,-3,-9,0,2673
0,-4,7,13,7,-4,-3,-9,0,2674
0,-4,7,13,7,-4,-3,-9,0,2675
0,-4,7,13,8,-3,-3,-9,0,2676
0,-4,7,13,8,-3,-2,-9,0,2677
0,-4,7,13,8,-3,-2,-9,0,2678
0,-4,7,13,8,-3,-2,-9,0,2679
0,-4,7,13,8,-3,-2,-9,0,2680
0,-4,7,13,8,-3,-2,-9,0,2681
0,-4,7,13,8,-3,-2,-9,0,2682
0,-4,7,13,8,-2,-2,-9,0,2683
0,-4,7,13,8,-2,-2,-9,0,2684
0,-4,7,13,8,-2,-2,-8,0,2685
0,-4,7,13,9,-2,-2,-8,0,2686
0,-3,7,13,9,-2,-2,-8,0,2687
0,-3,7,12,9,-2,-2,-8,0,2688
0,-3,6,12,9,-1,-2,-8,0,2689
0,-3,6,12,9,-1,-2,-8,0,2690
0,-3,6,12,9,-1,-1,-8,0,2691
0,-3,6,12,9,-1,-1,-8,0,2692
0,-3,6,12,9,-1,-1,-8,0,2693
0,-2,6,12,9,-1,-1,-8,0,2694
0,-2,6,12,9,-1,-1,-8,0,2695
0,-2,6,12,8,-1,-1,-8,0,2696
0,-2,6,12,8,-1,-1,-8,0,2697
0,-3,6,12,8,-1,-1,-8,0,2698
0,-3,5,12,7,-1,-1,-8,0,2699
0,-3,5,12,6,-1,-1,-8,0,2700
0,-3,5,11,6,-2,-1,-8,0,2701
0,-4,5,11,5,-2,-1,-8,0,2702
0,-4,5,11,5,-3,-2,-8,0,2703
0,-4,5,11,5,-3,-2,-8,0,2704
0,-4,4,11,5,-3,-2,-8,0,2705
0,-4,4,11,6,-2,-1,-8,0,2706
0,-3,4,11,8,-1,-1,-7,0,2707
1,-2,4,12,11,0,-1,-6,0,2708
2,-1,5,12,14,2,0,-5,0,2709
4,0,5,14,19,5,1,-3,0,2710
6,3,6,15,25,10,2,-1,0,2711
8,7,7,17,33,15,4,2,0,2712
12,11,9,20,42,22,7,6,0,2713
16,16,10,23,51,30,10,10,0,2714
20,22,13,27,63,39,14,14,0,2715
25,29,15,31,76,48,19,19,0,2716
30,37,18,36,90,59,24,25,0,2717
37,45,21,42,106,71,30,31,0,2718
44,54,24,48,122,85,37,37,0,2719
51,64,28,55,139,99,44,44,0,2720
59,74,32,63,157,114,51,51,0,2721
67,85,35,71,176,129,59,59,0,2722
75,96,39,79,195,145,68,66,0,2723
84,107,43,88,214,162,77,74,0,2724
92,118,47,98,234,179,87,82,0,2725
101,129,51,108,253,196,97,89,0,2726
109,141,55,118,272,213,108,97,0,2727
118,152,58,129,291,230,119,105,0,2728
126,163,62,140,309,247,130,112,0,2729
134,173,65,151,327,264,141,120,0,2730
141,184,68,162,345,280,153,127,0,2731
149,194,71,173,361,295,164,134,0,2732
156,203,74,184,378,310,175,141,0,2733
163,213,76,195,393,325,186,147,0,2734
169,222,79,206,408,338,196,154,0,2735
176,231,81,216,422,351,206,159,0,2736
182,239,84,225,435,362,215,165,0,2737
187,247,86,234,448,374,224,170,0,2738
193,254,88,242,460,384,232,175,0,2739
198,261,90,250,471,393,239,180,0,2740
203,268,92,256,481,402,246,184,0,2741
207,274,93,262,491,410,252,188,0,2742
211,279,95,267,500,418,257,191,0,2743
215,284,97,271,508,424,261,194,0,2744
218,288,98,275,515,430,265,197,0,2745
221,292,99,278,522,436,268,199,0,2746
223,296,100,281,527,440,271,201,0,2747
225,298,101,283,532,444,273,203,0,2748
226,300,102,285,536,447,275,204,0,2749
228,302,103,286,538,450,277,205,0,2750
228,303,103,288,540,452,278,206,0,2751
229,304,104,288,540,453,279,206,0,2752
230,304,104,289,539,453,280,206,0,2753
230,303,104,289,537,452,280,206,0,2754
230,303,104,289,533,450,280,205,0,2755
229,301,104,289,529,447,280,204,0,2756
228,299,104,288,522,442,279,202,0,2757
226,297,103,286,515,437,277,201,0,2758
224,294,102,284,506,431,275,199,0,2759
221,290,101,281,496,423,273,196,0,2760
218,286,99,278,485,414,270,193,0,2761
214,281,97,274,473,404,266,190,0,2762
210,275,94,270,460,393,262,186,0,2763
205,269,92,265,446,380,257,182,0,2764
199,262,88,259,431,367,252,177,0,2765
193,254,85,252,415,353,246,172,0,2766
186,246,81,245,398,338,239,166,0,2767
178,236,77,238,381,322,231,160,0,2768
170,226,73,229,363,305,223,153,0,2769
161,215,69,220,344,288,214,146,0,2770
152,204,64,210,324,270,204,138,0,2771
142,192,59,200,303,252,194,129,0,2772
133,179,55,189,282,233,183,120,0,2773
122,166,50,177,260,214,171,111,0,2774
112,153,45,164,238,195,159,102,0,2775
102,139,41,151,215,175,146,92,0,2776
91,125,36,138,192,155,133,83,0,2777
81,111,32,124,169,136,120,73,0,2778
70,97,27,110,147,117,106,64,0,2779
60,84,23,96,125,98,92,54,0,2780
51,71,18,83,104,80,79,45,0,2781
41,59,14,70,84,63,66,37,0,2782
33,47,11,57,65,48,53,29,0,2783
25,37,7,46,48,34,43,22,0,2784
18,26,4,35,33,21,32,14,0,2785
11,17,2,25,20,9,22,8,0,2786
6,9,0,17,8,0,13,2,0,2787
1,2,-1,10,-1,-9,5,-3,0,2788
-3,-3,-2,4,-10,-16,0,-8,0,2789
-6,-9,-4,-1,-17,-21,-6,-11,0,2790
-9,-13,-5,-6,-22,-26,-10,-14,0,2791
-11,-16,-5,-9,-25,-29,-13,-17,0,2792
-12,-19,-6,-11,-28,-30,-16,-19,0,2793
-13,-20,-6,-13,-30,-31,-18,-20,0,2794
-14,-21,-6,-14,-30,-32,-19,-21,0,2795
-14,-22,-6,-15,-31,-31,-19,-21,0,2796
-14,-22,-6,-15,-30,-31,-19,-21,0,2797
-14,-22,-6,-15,-30,-30,-19,-20,0,2798
-14,-22,-6,-14,-29,-29,-19,-20,0,2799
-14,-21,-5,-14,-28,-28,-18,-19,0,2800
-14,-20,-5,-13,-27,-27,-18,-18,0,2801
-14,-20,-5,-13,-26,-26,-18,-18,0,2802
-14,-19,-5,-12,-26,-25,-17,-17,0,2803
-14,-18,-5,-12,-25,-25,-17,-16,0,2804
-14,-18,-5,-11,-25,-24,-16,-16,0,2805
-14,-17,-5,-11,-24,-24,-16,-15,0,2806
-14,-17,-5,-10,-24,-24,-16,-15,0,2807
-14,-16,-5,-10,-23,-23,-15,-15,0,2808
-13,-16,-5,-10,-23,-23,-15,-15,0,2809
-13,-15,-5,-10,-23,-22,-14,-14,0,2810
-13,-15,-5,-10,-22,-22,-14,-14,0,2811
-13,-14,-5,-9,-22,-21,-13,-14,0,2812
-13,-13,-4,-9,-21,-21,-13,-14,0,2813
-12,-13,-4,-9,-20,-20,-12,-14,0,2814
-12,-12,-4,-9,-20,-20,-12,-14,0,2815
-12,-12,-4,-9,-19,-19,-11,-14,0,2816
-12,-12,-4,-9,-19,-19,-11,-14,0,2817
-12,-11,-4,-9,-19,-18,-10,-14,0,2818
-11,-11,-4,-9,-18,-18,-10,-15,0,2819
-11,-11,-4,-9,-18,-18,-10,-15,0,2820
-11,-11,-4,-9,-18,-18,-9,-15,0,2821
-11,-10,-4,-9,-18,-17,-9,-15,0,2822
-11,-10,-4,-9,-17,-17,-9,-15,0,2823
-11,-10,-4,-9,-17,-17,-9,-15,0,2824
-10,-10,-4,-9,-17,-17,-9,-15,0,2825
-10,-10,-4,-9,-17,-17,-8,-15,0,2826
-10,-10,-4,-9,-17,-17,-8,-15,0,2827
-10,-9,-4,-9,-17,-16,-8,-14,0,2828
-10,-9,-4,-9,-17,-16,-8,-14,0,2829
-10,-9,-4,-8,-17,-16,-8,-14,0,2830
-10,-9,-4,-8,-17,-16,-8,-14,0,2831
-10,-9,-4,-8,-16,-16,-8,-14,0,2832
-10,-8,-4,-8,-16,-16,-7,-14,0,2833
-10,-8,-4,-8,-16,-15,-7,-14,0,2834
-10,-8,-3,-8,-16,-15,-7,-14,0,2835
-10,-8,-3,-8,-16,-15,-7,-13,0,2836
-10,-8,-3,-8,-16,-15,-7,-13,0,2837
-9,-8,-3,-8,-16,-15,-7,-13,0,2838
-9,-8,-3,-8,-16,-15,-7,-13,0,2839
-9,-8,-3,-8,-16,-15,-7,-13,0,2840
-9,-8,-3,-8,-15,-15,-7,-13,0,2841
-9,-8,-3,-8,-15,-15,-7,-13,0,2842
-9,-8,-3,-8,-15,-15,-7,-13,0,2843
-9,-8,-3,-8,-15,-15,-7,-13,0,2844
-9,-7,-3,-8,-15,-15,-7,-13,0,2845
-9,-7,-3,-8,-15,-14,-7,-13,0,2846
-9,-7,-3,-8,-15,-14,-6,-13,0,2847
-9,-7,-3,-8,-15,-14,-6,-13,0,2848
-9,-7,-3,-8,-15,-14,-6,-13,0,2849
-9,-7,-3,-8,-15,-14,-6,-13,0,2850
-9,-7,-3,-7,-14,-13,-6,-13,0,2851
-9,-7,-3,-7,-14,-13,-6,-13,0,2852
-9,-6,-2,-7,-14,-13,-6,-12,0,2853
-9,-6,-2,-7,-14,-13,-6,-12,0,2854
-8,-6,-2,-7,-14,-13,-5,-12,0,2855
-8,-6,-2,-7,-13,-13,-5,-12,0,2856
-8,-6,-2,-7,-13,-13,-5,-12,0,2857
-8,-6,-2,-7,-13,-13,-5,-12,0,2858
-8,-5,-2,-7,-13,-12,-5,-12,0,2859
-8,-5,-2,-7,-13,-12,-4,-12,0,2860
-8,-5,-2,-7,-13,-12,-4,-12,0,2861
-8,-5,-2,-7,-13,-12,-4,-12,0,2862
-8,-5,-2,-6,-12,-12,-4,-12,0,2863
-8,-5,-2,-6,-12,-12,-4,-12,0,2864
-8,-5,-2,-6,-12,-12,-4,-12,0,2865
-8,-5,-2,-6,-12,-12,-4,-12,0,2866
-8,-5,-2,-6,-12,-12,-4,-12,0,2867
-8,-5,-2,-6,-12,-12,-4,-12,0,2868
-8,-5,-2,-6,-12,-12,-4,-12,0,2869
-8,-5,-2,-6,-12,-11,-4,-12,0,2870
-8,-5,-2,-6,-12,-11,-4,-12,0,2871
-8,-5,-2,-6,-12,-11,-4,-12,0,2872
-8,-5,-2,-6,-11,-11,-4,-12,0,2873
-7,-4,-2,-6,-11,-11,-3,-12,0,2874
-7,-4,-2,-6,-11,-11,-3,-12,0,2875
-7,-4,-2,-6,-11,-11,-3,-11,0,2876
-7,-4,-2,-6,-11,-10,-3,-11,0,2877
-7,-4,-1,-6,-11,-10,-3,-11,0,2878
-7,-4,-1,-6,-11,-10,-3,-11,0,2879
-7,-4,-1,-6,-10,-10,-2,-11,0,2880
-7,-4,-1,-6,-10,-10,-2,-11,0,2881
-7,-4,-1,-6,-10,-10,-2,-11,0,2882
-7,-3,-1,-6,-10,-9,-2,-11,0,2883
-7,-3,-1,-6,-10,-9,-2,-11,0,2884
-6,-3,-1,-6,-10,-9,-2,-11,0,2885
-6,-3,-1,-5,-10,-9,-2,-11,0,2886
-6,-3,-1,-5,-9,-9,-2,-11,0,2887
-6,-3,-1,-5,-9,-9,-2,-11,0,2888
-6,-3,-1,-5,-9,-9,-2,-11,0,2889
-6,-3,-1,-5,-9,-9,-2,-11,0,2890
-5,-3,-1,-5,-9,-9,-2,-11,0,2891
-5,-3,-1,-5,-9,-9,-2,-10,0,2892
-5,-3,-1,-5,-9,-8,-2,-10,0,2893
-5,-3,-1,-5,-9,-8,-2,-10,0,2894
-5,-3,-1,-5,-9,-8,-2,-10,0,2895
-5,-3,-1,-5,-8,-8,-2,-10,0,2896
-5,-3,-1,-4,-8,-8,-2,-10,0,2897
-5,-3,-1,-4,-8,-8,-2,-10,0,2898
-5,-3,-1,-4,-8,-8,-2,-10,0,2899
-5,-3,-1,-4,-8,-7,-2,-10,0,2900
-5,-2,-1,-4,-8,-7,-2,-10,0,2901
-6,-2,-1,-4,-8,-7,-2,-10,0,2902
-6,-2,-1,-4,-8,-7,-1,-10,0,2903
-6,-2,-1,-4,-8,-7,-1,-10,0,2904
-6,-2,-1,-4,-7,-7,-1,-9,0,2905
-6,-2,-1,-4,-7,-7,-1,-9,0,2906
-6,-2,-1,-4,-7,-7,-1,-9,0,2907
-6,-2,-1,-3,-7,-6,-1,-9,0,2908
-6,-2,-1,-3,-7,-6,-1,-9,0,2909
-6,-2,-1,-3,-7,-6,-1,-9,0,2910
-5,-2,-1,-3,-7,-6,-1,-9,0,2911
-5,-1,-1,-3,-6,-6,-1,-9,0,2912
-5,-1,-1,-3,-6,-6,-1,-9,0,2913
-5,-1,-1,-3,-6,-6,-1,-9,0,2914
-5,-1,-1,-3,-6,-6,-1,-8,0,2915
-5,-1,0,-3,-6,-5,-1,-8,0,2916
-5,-1,0,-3,-6,-5,-1,-8,0,2917
-5,-1,0,-3,-6,-5,-1,-8,0,2918
-5,-1,0,-3,-6,-5,-1,-8,0,2919
-5,-1,0,-3,-6,-5,0,-8,0,2920
-4,-1,0,-3,-6,-5,0,-8,0,2921
-4,-1,0,-2,-6,-5,0,-8,0,2922
-4,-1,0,-2,-5,-5,0,-8,0,2923
-4,-1,0,-2,-5,-5,0,-8,0,2924
-4,-1,0,-2,-5,-4,0,-8,0,2925
-4,-1,0,-2,-5,-4,0,-8,0,2926
-4,-1,0,-2,-5,-4,0,-8,0,2927
-4,-1,0,-2,-5,-4,0,-8,0,2928
-4,-1,0,-2,-5,-4,0,-8,0,2929
-4,-1,0,-2,-5,-4,0,-8,0,2930
-3,-1,0,-2,-4,-4,0,-8,0,2931
-3,-1,0,-2,-4,-4,0,-7,0,2932
-3,-1,0,-2,-4,-4,0,-7,0,2933
-3,0,0,-2,-4,-3,0,-7,0,2934
-3,0,0,-2,-4,-3,0,-7,0,2935
-3,0,0,-2,-4,-3,0,-7,0,2936
-3,0,0,-1,-4,-3,0,-7,0,2937
-3,0,0,-1,-3,-3,0,-7,0,2938
-3,0,0,-1,-3,-3,0,-7,0,2939
-3,0,0,-1,-3,-3,0,-7,0,2940
-3,0,0,-1,-3,-2,0,-7,0,2941
-3,0,0,-1,-3,-2,0,-7,0,2942
-3,0,0,-1,-3,-2,0,-7,0,2943
-3,0,0,-1,-3,-2,0,-7,0,2944
-3,0,0,-1,-3,-2,0,-7,0,2945
-3,0,0,-1,-3,-2,0,-7,0,2946
-3,0,0,-1,-3,-2,0,-7,0,2947
-3,0,0,-1,-3,-2,0,-6,0,2948
-3,0,0,-1,-2,-2,1,-6,0,2949
-3,0,0,-1,-2,-2,1,-6,0,2950
-3,0,0,-1,-2,-2,1,-6,0,2951
-3,0,0,-1,-2,-2,1,-6,0,2952
-2,0,0,-1,-2,-1,1,-6,0,2953
-2,0,0,0,-2,-1,1,-6,0,2954
-2,0,0,0,-1,-1,1,-5,0,2955
-2,0,0,0,-1,-1,1,-5,0,2956
-2,0,0,0,-1,-1,1,-5,0,2957
-2,0,0,0,-1,-1,1,-5,0,2958
-2,0,0,0,-1,0,1,-5,0,2959
-2,0,0,0,0,0,1,-5,0,2960
-2,0,0,0,0,0,1,-5,0,2961
-2,0,0,0,0,0,2,-5,0,2962
-2,1,0,0,0,0,2,-5,0,2963
-2,1,0,0,0,0,2,-5,0,2964
-2,1,0,0,0,0,2,-5,0,2965
-1,1,0,0,0,0,2,-5,0,2966
-1,1,0,0,0,0,2,-5,0,2967
-1,1,0,0,0,0,2,-5,0,2968
-1,1,0,0,0,0,2,-5,0,2969
-1,1,0,0,0,0,2,-5,0,2970
-1,1,0,0,0,0,2,-5,0,2971
-1,1,0,0,0,0,2,-5,0,2972
-1,1,0,0,0,0,2,-5,0,2973
-1,1,0,0,0,0,2,-5,0,2974
-1,1,0,1,0,0,2,-5,0,2975
-1,1,0,1,0,0,2,-5,0,2976
-1,1,0,1,0,0,2,-5,0,2977
-1,2,0,1,0,0,2,-5,0,2978
-1,2,0,1,0,0,2,-5,0,2979
-1,2,0,1,0,0,2,-5,0,2980
-1,2,0,1,0,0,2,-4,0,2981
-1,2,0,1,0,0,2,-4,0,2982
-1,2,0,1,0,0,2,-4,0,2983
-1,2,0,1,0,0,2,-4,0,2984
-1,2,0,1,0,0,2,-4,0,2985
-1,2,0,2,0,0,2,-4,0,2986
-1,2,0,2,0,0,3,-4,0,2987
-1,2,0,2,0,0,3,-4,0,2988
-1,2,0,2,0,0,3,-4,0,2989
-1,2,0,2,0,0,3,-4,0,2990
-1,2,0,2,0,0,3,-4,0,2991
-1,2,0,2,1,1,3,-4,0,2992
-1,2,1,2,1,1,3,-4,0,2993
-1,2,1,2,1,1,4,-4,0,2994
-1,2,1,2,1,1,4,-4,0,2995
-1,2,1,2,1,1,4,-4,0,2996
-1,2,1,2,1,1,4,-4,0,2997
0,3,1,2,1,1,4,-4,0,2998
0,3,1,2,1,2,4,-3,0,2999
0,3,1,3,1,2,4,-3,0,3000
0,3,1,3,1,2,4,-3,0,3001
0,3,1,3,1,2,4,-3,0,3002
0,3,1,3,1,2,4,-3,0,3003
0,3,1,3,1,2,4,-3,0,3004
0,4,1,3,2,2,4,-3,0,3005
0,4,1,3,2,2,4,-3,0,3006
0,4,1,3,2,2,4,-3,0,3007
0,4,1,3,2,2,4,-3,0,3008
0,4,1,3,2,2,4,-3,0,3009
0,4,1,3,2,2,4,-3,0,3010
0,4,1,3,2,2,4,-3,0,3011
0,4,1,3,2,2,4,-3,0,3012
0,4,1,3,2,2,4,-3,0,3013
0,4,1,3,2,2,4,-3,0,3014
0,4,1,3,2,2,4,-2,0,3015
0,4,1,4,2,2,4,-2,0,3016
0,4,1,4,2,2,5,-2,0,3017
0,4,1,4,2,2,5,-2,0,3018
0,4,1,4,2,2,4,-2,0,3019
0,3,1,4,1,2,4,-2,0,3020
0,3,1,4,1,2,4,-2,0,3021
0,3,1,4,1,1,4,-2,0,3022
0,2,1,4,0,1,4,-2,0,3023
0,2,1,3,0,1,4,-2,0,3024
0,1,0,3,0,1,4,-3,0,3025
0,1,0,3,0,1,4,-3,0,3026
1,1,0,3,0,2,4,-2,0,3027
1,1,0,4,0,3,5,-2,0,3028
2,1,0,4,1,4,7,-1,0,3029
3,2,1,5,3,7,9,0,0,3030
4,4,1,7,6,10,12,1,0,3031
6,6,1,9,10,14,16,4,0,3032
9,10,2,11,14,18,21,6,0,3033
12,14,4,14,20,24,26,10,0,3034
16,19,6,18,27,31,33,14,0,3035
21,26,8,23,34,38,40,19,0,3036
26,33,11,29,43,47,47,25,0,3037
32,42,14,35,51,55,56,31,0,3038
39,50,17,42,60,64,65,37,0,3039
46,60,21,49,70,73,74,44,0,3040
54,71,25,56,79,83,83,52,0,3041
62,82,29,64,89,92,92,60,0,3042
70,93,32,71,98,101,101,67,0,3043
78,103,36,79,106,109,109,75,0,3044
86,114,40,86,114,116,116,82,0,3045
94,124,43,92,121,123,123,89,0,3046
100,133,46,98,127,129,129,95,0,3047
106,141,49,103,132,134,134,100,0,3048
112,148,51,107,137,138,138,104,0,3049
116,154,53,111,140,141,142,108,0,3050
120,159,54,113,143,143,144,110,0,3051
122,162,54,115,144,144,145,112,0,3052
123,164,55,116,145,145,146,113,0,3053
124,164,54,115,145,145,145,112,0,3054
123,163,53,114,144,144,144,111,0,3055
121,161,52,112,143,142,142,109,0,3056
118,157,50,108,140,139,139,106,0,3057
114,152,47,104,137,135,136,102,0,3058
109,145,44,99,133,131,131,97,0,3059
103,138,41,93,128,125,126,92,0,3060
96,129,38,87,122,119,119,86,0,3061
89,120,34,79,115,111,112,79,0,3062
81,110,30,72,107,103,105,72,0,3063
73,99,26,64,99,95,96,65,0,3064
65,88,23,57,90,85,87,58,0,3065
57,77,19,49,81,76,78,50,0,3066
48,66,15,42,72,66,69,43,0,3067
41,56,12,34,63,57,59,36,0,3068
33,46,9,28,53,48,50,30,0,3069
27,37,7,22,45,40,42,24,0,3070
22,29,4,17,37,32,34,18,0,3071
16,22,2,12,30,25,27,13,0,3072
12,15,1,10,23,19,20,8,0,3073
8,10,0,6,17,14,14,5,0,3074
5,6,0,4,12,10,10,2,0,3075
3,3,0,2,8,6,6,0,0,3076
1,0,-1,1,5,4,3,-2,0,3077
0,0,-1,0,3,2,1,-3,0,3078
0,-1,-1,0,1,1,0,-3,0,3079
0,-2,-1,0,0,0,0,-3,0,3080
0,-2,-1,0,0,0,-1,-3,0,3081
0,-1,-1,0,-1,0,0,-2,0,3082
0,-1,-1,0,-1,0,0,-1,0,3083
0,0,-1,0,0,0,0,0,0,3084
0,0,0,0,0,1,0,0,0,3085
0,0,0,1,0,1,1,1,0,3086
0,1,0,1,0,1,2,2,0,3087
0,1,0,1,1,1,2,2,0,3088
0,2,0,1,1,1,3,3,0,3089
0,2,0,1,1,2,3,3,0,3090
0,2,0,2,2,2,4,3,0,3091
0,3,0,2,2,2,4,3,0,3092
1,3,0,2,3,2,4,3,0,3093
1,3,0,2,3,3,5,4,0,3094
2,4,0,2,4,3,5,4,0,3095
2,4,0,3,5,4,6,4,0,3096
3,5,0,3,6,5,6,4,0,3097
4,6,0,3,6,6,7,5,0,3098
5,6,0,3,7,7,8,5,0,3099
5,7,0,3,7,7,8,5,0,3100
6,7,-1,2,7,7,8,5,0,3101
7,7,-2,2,5,7,8,5,0,3102
7,7,-3,0,3,5,7,5,0,3103
7,6,-4,-1,-1,3,6,3,0,3104
6,5,-5,-4,-6,0,3,1,0,3105
4,2,-6,-6,-12,-6,0,-1,0,3106
2,-1,-7,-9,-20,-13,-6,-5,0,3107
-2,-6,-7,-12,-28,-21,-13,-11,0,3108
-6,-13,-7,-15,-36,-30,-21,-18,0,3109
-12,-20,-5,-17,-43,-39,-31,-26,0,3110
-18,-28,-3,-18,-48,-47,-40,-34,0,3111
-24,-37,1,-16,-49,-53,-49,-42,0,3112
-31,-45,7,-12,-46,-56,-57,-49,0,3113
-36,-51,16,-3,-35,-53,-61,-54,0,3114
-41,-55,28,9,-17,-44,-61,-56,0,3115
-43,-54,42,25,11,-26,-55,-53,0,3116
-41,-49,58,48,48,0,-42,-45,0,3117
-36,-37,76,75,97,39,-20,-29,0,3118
-26,-17,95,106,155,88,11,-5,0,3119
-10,9,114,141,223,149,52,26,0,3120
11,45,132,176,297,220,104,66,0,3121
38,90,148,211,375,300,166,115,0,3122
71,144,160,243,453,386,236,172,0,3123
109,204,166,269,528,476,311,234,0,3124
150,270,166,286,595,564,390,300,0,3125
195,339,158,292,650,647,469,368,0,3126
240,408,141,285,688,721,545,434,0,3127
284,475,114,262,706,782,614,496,0,3128
326,536,79,222,703,827,672,551,0,3129
362,589,34,167,675,852,718,596,0,3130
393,631,-16,96,625,856,748,629,0,3131
415,661,-73,12,553,839,761,648,0,3132
429,676,-134,-82,463,800,756,653,0,3133
433,676,-196,-182,357,742,734,643,0,3134
427,660,-257,-285,242,668,695,618,0,3135
412,631,-313,-384,123,580,642,581,0,3136
388,588,-362,-477,6,483,577,533,1024,3137
357,534,-402,-557,-105,382,503,476,0,3138
320,473,-431,-621,-205,281,425,414,0,3139
279,406,-448,-667,-288,184,345,348,0,3140
236,336,-453,-693,-354,95,266,283,0,3141
192,267,-445,-698,-398,17,192,219,0,3142
149,200,-426,-683,-423,-47,126,160,0,3143
109,139,-396,-650,-428,-97,68,108,0,3144
73,85,-359,-601,-416,-134,21,62,0,3145
41,40,-316,-540,-389,-156,-16,26,0,3146
16,3,-269,-470,-350,-166,-44,-3,0,3147
-5,-25,-221,-395,-304,-166,-62,-24,0,3148
-20,-46,-174,-320,-254,-156,-72,-39,0,3149
-31,-58,-130,-247,-203,-141,-76,-48,0,3150
-37,-65,-90,-180,-153,-121,-73,-51,0,3151
-39,-66,-56,-120,-108,-100,-67,-51,0,3152
-39,-63,-27,-69,-69,-78,-59,-47,0,3153
-36,-57,-4,-27,-37,-58,-49,-42,0,3154
-32,-49,11,5,-11,-40,-40,-37,0,3155
-28,-41,22,27,8,-25,-30,-31,0,3156
-23,-33,29,42,20,-13,-22,-25,0,3157
-18,-26,33,51,28,-5,-15,-20,0,3158
-14,-19,33,54,31,0,-10,-16,0,3159
-10,-14,31,53,31,4,-6,-13,0,3160
-7,-10,28,50,29,5,-3,-11,0,3161
-5,-7,25,45,26,5,-2,-9,0,3162
-3,-5,21,39,23,4,-1,-8,0,3163
-2,-3,18,34,19,3,0,-8,0,3164
-1,-3,15,28,15,1,0,-7,0,3165
-1,-3,13,24,13,0,-1,-7,0,3166
-1,-3,11,20,10,-1,-1,-8,0,3167
-1,-3,10,18,9,-2,-1,-8,0,3168
-1,-4,9,16,8,-3,-2,-8,0,3169
-1,-4,8,15,7,-3,-2,-8,0,3170
-2,-4,8,14,7,-4,-2,-8,0,3171
-2,-5,8,13,7,-4,-2,-8,0,3172
-2,-5,8,13,7,-4,-2,-8,0,3173
-2,-5,8,13,7,-4,-2,-8,0,3174
-2,-5,8,13,7,-3,-2,-8,0,3175
-2,-5,8,14,8,-3,-2,-8,0,3176
-2,-5,8,14,8,-3,-2,-8,0,3177
-2,-5,8,14,8,-3,-2,-8,0,3178
-2,-5,8,14,8,-3,-2,-7,0,3179
-2,-4,8,14,8,-2,-2,-7,0,3180
-2,-4,8,14,8,-2,-1,-7,0,3181
-1,-4,8,14,8,-2,-1,-7,0,3182
-1,-4,8,14,9,-2,-1,-7,0,3183
-1,-4,8,14,9,-2,-1,-7,0,3184
-1,-4,7,14,9,-2,-1,-7,0,3185
-1,-4,7,14,9,-2,-1,-7,0,3186
-1,-4,7,14,9,-1,-1,-7,0,3187
-1,-4,7,14,9,-1,-1,-7,0,3188
-1,-4,7,14,9,-1,-1,-7,0,3189
-1,-4,7,14,9,-1,-1,-7,0,3190
-1,-4,7,14,9,-1,-1,-7,0,3191
-1,-4,7,14,9,-1,-1,-7,0,3192
-1,-4,7,14,9,-1,-1,-7,0,3193
-1,-4,7,14,9,-1,-1,-7,0,3194
-1,-4,7,14,9,0,-1,-7,0,3195
-1,-4,7,13,9,0,-1,-6,0,3196
-1,-4,7,13,9,0,-1,-6,0,3197
-1,-4,7,13,9,0,-1,-6,0,3198
-1,-3,7,13,9,0,-1,-6,0,3199
-1,-3,7,13,9,0,-1,-6,0,3200
-1,-4,7,13,8,0,-1,-6,0,3201
-1,-4,7,12,8,-1,-1,-6,0,3202
-1,-4,7,12,7,-1,-1,-6,0,3203
-1,-4,7,12,7,-1,-1,-6,0,3204
-1,-4,7,12,6,-2,-1,-7,0,3205
-1,-4,6,11,6,-2,-1,-7,0,3206
-1,-4,6,11,6,-2,-1,-7,0,3207
-1,-4,6,11,6,-2,-1,-7,0,3208
-1,-3,6,11,7,-1,-1,-6,0,3209
0,-3,6,12,8,0,-1,-6,0,3210
1,-1,6,12,11,1,-1,-5,0,3211
2,0,6,13,15,3,0,-4,0,3212
4,1,7,15,20,6,1,-2,0,3213
6,4,7,16,26,11,2,0,0,3214
8,8,9,19,34,16,4,2,0,3215
12,12,10,21,43,23,7,6,0,3216
16,18,12,25,52,31,11,10,0,3217
20,24,14,29,64,40,15,15,0,3218
25,31,16,33,77,49,19,20,0,3219
30,39,19,38,91,60,24,26,0,3220
37,46,22,44,107,73,30,32,0,3221
44,55,25,50,123,86,37,38,0,3222
51,65,29,57,141,100,44,45,0,3223
59,75,33,65,159,115,51,52,0,3224
67,86,37,73,177,131,59,60,0,3225
75,97,41,81,196,147,68,67,0,3226
83,108,44,90,216,163,78,75,0,3227
92,119,48,100,235,180,88,83,0,3228
100,131,52,110,254,198,98,90,0,3229
109,142,56,120,273,215,109,98,0,3230
117,153,60,131,292,232,120,106,0,3231
125,164,63,141,310,249,131,113,0,3232
133,174,66,153,328,265,142,120,0,3233
141,185,69,164,346,281,153,128,0,3234
148,195,72,175,362,297,165,135,0,3235
156,204,75,186,379,312,176,141,0,3236
162,214,77,197,394,326,186,148,0,3237
169,223,80,207,409,339,197,154,0,3238
175,231,82,217,423,352,207,160,0,3239
181,239,85,226,436,363,216,166,0,3240
187,247,87,235,449,374,225,171,0,3241
192,255,89,243,461,385,233,176,0,3242
197,261,91,250,472,394,240,181,0,3243
202,268,92,257,482,403,246,185,0,3244
206,274,94,262,492,411,252,189,0,3245
210,279,96,267,500,418,257,192,0,3246
213,284,97,272,509,425,262,195,0,3247
216,288,99,275,516,431,265,198,0,3248
219,292,100,278,522,436,269,200,0,3249
221,295,101,281,528,441,271,202,0,3250
223,298,102,283,532,445,274,204,0,3251
225,300,103,285,536,448,276,205,0,3252
226,301,103,287,539,450,277,206,0,3253
227,303,104,288,540,452,278,207,0,3254
228,303,104,289,540,453,279,207,0,3255
228,303,105,289,539,453,280,207,0,3256
228,303,105,290,537,452,280,207,0,3257
228,302,105,290,533,449,280,206,0,3258
228,301,105,289,529,446,279,205,0,3259
227,299,104,288,522,442,278,203,0,3260
225,297,103,286,515,437,277,201,0,3261
223,294,102,284,506,430,275,199,0,3262
221,290,101,282,496,422,272,197,0,3263
217,286,99,279,485,413,269,194,0,3264
214,281,97,275,473,403,266,190,0,3265
209,275,94,270,459,392,262,187,0,3266
204,269,92,265,445,380,257,182,0,3267
198,262,88,260,430,367,251,178,0,3268
192,254,85,253,415,352,245,172,0,3269
185,245,81,246,398,337,238,167,0,3270
178,236,77,239,381,322,231,160,0,3271
169,226,73,230,363,305,223,153,0,3272
161,215,69,221,344,288,214,146,0,3273
152,204,64,211,324,270,204,138,0,3274
142,192,60,201,304,252,194,129,0,3275
132,179,55,189,282,233,182,121,0,3276
122,166,50,177,260,214,171,111,0,3277
112,152,46,164,238,194,158,102,0,3278
101,139,41,151,215,175,145,92,0,3279
91,125,36,138,192,155,132,83,0,3280
80,111,32,124,170,135,119,73,0,3281
70,97,27,110,147,116,105,63,0,3282
60,84,23,96,125,98,91,54,0,3283
50,71,19,82,104,80,78,45,0,3284
40,58,15,69,84,63,65,36,0,3285
31,46,11,57,65,48,53,29,0,3286
24,36,7,45,48,33,42,21,0,3287
17,26,4,35,33,20,31,14,0,3288
10,17,1,25,20,8,22,8,0,3289
4,9,0,17,8,-1,13,2,0,3290
-1,1,-1,10,-2,-9,5,-2,0,3291
-5,-4,-2,4,-11,-16,0,-6,0,3292
-8,-9,-4,-1,-17,-21,-5,-10,0,3293
-11,-13,-5,-5,-23,-25,-10,-13,0,3294
-13,-16,-5,-8,-26,-28,-13,-15,0,3295
-14,-19,-6,-10,-29,-30,-15,-17,0,3296
-15,-20,-6,-12,-30,-31,-17,-18,0,3297
-16,-22,-6,-13,-31,-31,-18,-19,0,3298
-16,-22,-6,-14,-31,-31,-19,-19,0,3299
-16,-22,-6,-14,-31,-30,-19,-19,0,3300
-16,-22,-6,-14,-30,-30,-19,-19,0,3301
-16,-22,-6,-13,-30,-29,-18,-18,0,3302
-16,-21,-5,-13,-29,-28,-18,-18,0,3303
-16,-21,-5,-12,-28,-27,-18,-17,0,3304
-16,-20,-5,-12,-27,-26,-17,-16,0,3305
-16,-19,-5,-11,-27,-25,-17,-16,0,3306
-16,-19,-5,-11,-26,-25,-17,-15,0,3307
-16,-18,-5,-10,-26,-24,-16,-15,0,3308
-16,-18,-5,-10,-25,-24,-16,-14,0,3309
-16,-17,-5,-10,-25,-24,-16,-14,0,3310
-16,-17,-5,-9,-25,-23,-15,-14,0,3311
-15,-16,-5,-9,-24,-23,-15,-14,0,3312
-15,-16,-5,-9,-24,-22,-14,-14,0,3313
-15,-15,-4,-9,-23,-22,-14,-14,0,3314
-14,-14,-4,-9,-23,-21,-13,-14,0,3315
-14,-14,-4,-9,-22,-21,-13,-14,0,3316
-13,-13,-4,-9,-21,-20,-12,-13,0,3317
-13,-13,-4,-9,-21,-20,-11,-13,0,3318
-13,-12,-4,-9,-20,-19,-11,-13,0,3319
-12,-12,-4,-9,-20,-18,-10,-13,0,3320
-12,-11,-4,-9,-19,-18,-10,-13,0,3321
-12,-11,-4,-9,-19,-18,-9,-13,0,3322
-12,-11,-4,-9,-18,-17,-9,-13,0,3323
-12,-10,-4,-9,-18,-17,-9,-13,0,3324
-12,-10,-4,-9,-18,-17,-9,-13,0,3325
-12,-10,-3,-9,-18,-17,-9,-13,0,3326
-12,-10,-3,-9,-18,-17,-8,-12,0,3327
-12,-10,-3,-9,-18,-16,-8,-12,0,3328
-12,-10,-3,-9,-18,-16,-8,-12,0,3329
-12,-10,-3,-9,-18,-16,-8,-12,0,3330
-12,-10,-3,-8,-18,-16,-8,-13,0,3331
-12,-9,-3,-8,-17,-16,-8,-13,0,3332
-12,-9,-3,-8,-17,-16,-8,-13,0,3333
-12,-9,-3,-8,-17,-16,-8,-13,0,3334
-12,-9,-3,-8,-17,-16,-8,-13,0,3335
-12,-9,-3,-8,-17,-16,-8,-13,0,3336
-11,-9,-3,-8,-17,-16,-8,-13,0,3337
-11,-9,-3,-8,-17,-16,-7,-12,0,3338
-11,-9,-3,-8,-17,-15,-7,-12,0,3339
-11,-9,-3,-8,-16,-15,-7,-12,0,3340
-11,-8,-3,-8,-16,-15,-7,-12,0,3341
-11,-8,-3,-7,-16,-15,-7,-12,0,3342
-11,-8,-3,-7,-16,-15,-7,-12,0,3343
-10,-8,-3,-7,-16,-15,-7,-12,0,3344
-10,-8,-2,-7,-16,-15,-7,-12,0,3345
-10,-8,-2,-7,-16,-15,-7,-12,0,3346
-10,-8,-2,-7,-16,-15,-6,-12,0,3347
-10,-8,-2,-7,-16,-15,-6,-12,0,3348
-10,-8,-2,-7,-15,-15,-6,-12,0,3349
-10,-7,-2,-7,-15,-14,-6,-11,0,3350
-10,-7,-2,-7,-15,-14,-6,-11,0,3351
-10,-7,-2,-7,-15,-14,-6,-11,0,3352
-10,-7,-2,-7,-15,-14,-6,-11,0,3353
-10,-7,-2,-7,-15,-14,-6,-12,0,3354
-10,-7,-2,-6,-15,-14,-6,-12,0,3355
-10,-7,-2,-6,-14,-14,-5,-12,0,3356
-10,-7,-2,-6,-14,-14,-5,-12,0,3357
-10,-7,-2,-6,-14,-13,-5,-12,0,3358
-10,-6,-2,-6,-14,-13,-5,-12,0,3359
-10,-6,-2,-6,-14,-13,-5,-12,0,3360
-10,-6,-2,-6,-14,-13,-5,-12,0,3361
-10,-6,-2,-6,-14,-13,-5,-12,0,3362
-10,-6,-2,-6,-14,-13,-5,-11,0,3363
-10,-6,-2,-6,-14,-13,-5,-11,0,3364
-10,-6,-2,-6,-13,-13,-4,-11,0,3365
-9,-5,-2,-6,-13,-13,-4,-11,0,3366
-9,-5,-2,-6,-13,-13,-4,-11,0,3367
-9,-5,-2,-6,-13,-13,-4,-11,0,3368
-9,-5,-2,-6,-13,-12,-4,-11,0,3369
-9,-5,-2,-6,-13,-12,-4,-11,0,3370
-9,-5,-2,-6,-13,-12,-4,-11,0,3371
-9,-5,-2,-6,-13,-12,-4,-11,0,3372
-9,-5,-2,-6,-13,-12,-4,-11,0,3373
-9,-5,-2,-6,-12,-11,-3,-11,0,3374
-9,-5,-1,-6,-12,-11,-3,-11,0,3375
-9,-5,-1,-6,-12,-11,-3,-11,0,3376
-9,-5,-1,-5,-12,-11,-3,-11,0,3377
-9,-5,-1,-5,-12,-11,-3,-10,0,3378
-9,-5,-1,-5,-12,-11,-3,-10,0,3379
-9,-5,-1,-5,-12,-10,-3,-10,0,3380
-9,-5,-1,-5,-11,-10,-3,-10,0,3381
-8,-4,-1,-5,-11,-10,-3,-10,0,3382
-8,-4,-1,-5,-11,-10,-3,-10,0,3383
-8,-4,-1,-5,-11,-10,-3,-10,0,3384
-8,-4,-1,-5,-11,-10,-3,-10,0,3385
-8,-4,-1,-4,-11,-10,-3,-9,0,3386
-8,-4,-1,-4,-11,-9,-3,-9,0,3387
-8,-4,-1,-4,-10,-9,-3,-9,0,3388
-8,-4,-1,-4,-10,-9,-3,-9,0,3389
-8,-4,-1,-4,-10,-9,-3,-9,0,3390
-8,-4,-1,-4,-10,-9,-3,-9,0,3391
-7,-4,0,-4,-10,-9,-3,-9,0,3392
-7,-4,0,-4,-9,-9,-3,-9,0,3393
-7,-4,0,-4,-9,-9,-3,-9,0,3394
-7,-3,0,-4,-9,-8,-3,-9,0,3395
-7,-3,0,-4,-9,-8,-2,-9,0,3396
-7,-3,0,-4,-9,-8,-2,-9,0,3397
-7,-3,0,-4,-9,-8,-2,-9,0,3398
-7,-3,0,-4,-9,-8,-2,-9,0,3399
-7,-3,0,-4,-8,-7,-2,-9,0,3400
-7,-3,0,-4,-8,-7,-2,-9,0,3401
-8,-3,0,-4,-8,-7,-2,-9,0,3402
-8,-3,0,-4,-8,-7,-2,-9,0,3403
-8,-3,0,-4,-8,-7,-2,-9,0,3404
-8,-3,0,-4,-8,-7,-2,-9,0,3405
-7,-3,0,-4,-8,-7,-1,-8,0,3406
-7,-2,0,-4,-8,-7,-1,-8,0,3407
-7,-2,0,-4,-7,-7,-1,-8,0,3408
-7,-2,0,-4,-7,-6,-1,-8,0,3409
-7,-2,0,-4,-7,-6,-1,-8,0,3410
-7,-2,0,-4,-7,-6,-1,-8,0,3411
-7,-2,0,-4,-7,-6,-1,-8,0,3412
-7,-2,0,-4,-7,-6,-1,-8,0,3413
-7,-2,0,-4,-7,-6,-1,-8,0,3414
-7,-2,0,-4,-7,-5,-1,-8,0,3415
-7,-2,0,-4,-7,-5,-1,-8,0,3416
-7,-1,0,-3,-7,-5,-1,-8,0,3417
-7,-1,0,-3,-7,-5,-1,-8,0,3418
-6,-1,0,-3,-7,-5,-1,-8,0,3419
-6,-1,0,-3,-7,-5,-1,-8,0,3420
-6,-1,0,-3,-6,-5,-1,-8,0,3421
-6,-1,0,-3,-6,-5,-1,-8,0,3422
-6,-1,0,-3,-6,-5,-1,-8,0,3423
-6,-1,0,-3,-6,-5,-1,-8,0,3424
-6,-1,0,-3,-6,-5,-1,-7,0,3425
-6,-1,0,-2,-6,-5,-1,-7,0,3426
-6,-1,0,-2,-5,-5,-1,-7,0,3427
-5,0,0,-2,-5,-5,-1,-7,0,3428
-5,0,0,-2,-5,-4,-1,-7,0,3429
-5,0,0,-2,-5,-4,0,-7,0,3430
-5,0,0,-2,-5,-4,0,-7,0,3431
-5,0,0,-2,-4,-4,0,-7,0,3432
-5,0,0,-2,-4,-4,0,-7,0,3433
-5,0,0,-2,-4,-4,0,-7,0,3434
-5,0,0,-2,-4,-4,0,-6,0,3435
-5,0,0,-2,-4,-3,0,-6,0,3436
-5,0,0,-2,-4,-3,0,-6,0,3437
-5,0,0,-2,-4,-3,0,-6,0,3438
-5,0,0,-2,-3,-3,0,-6,0,3439
-4,0,0,-1,-3,-3,0,-6,0,3440
-4,0,0,-1,-3,-3,0,-6,0,3441
-4,0,0,-1,-3,-3,0,-6,0,3442
-4,0,0,-1,-3,-3,0,-6,0,3443
-4,0,0,-1,-3,-3,0,-6,0,3444
-4,0,0,-1,-3,-3,0,-6,0,3445
-4,0,0,-1,-3,-3,0,-6,0,3446
-4,0,0,-1,-3,-3,0,-6,0,3447
-4,0,0,-1,-3,-3,0,-6,0,3448
-4,0,0,-1,-3,-3,1,-6,0,3449
-4,0,0,-1,-3,-3,1,-6,0,3450
-4,0,0,-1,-3,-2,1,-6,0,3451
-4,0,0,-1,-2,-2,1,-5,0,3452
-4,0,0,-1,-2,-2,1,-5,0,3453
-4,0,0,-1,-2,-2,1,-5,0,3454
-4,0,0,-1,-2,-2,1,-5,0,3455
-4,0,0,-1,-2,-1,1,-5,0,3456
-3,0,0,-1,-2,-1,1,-5,0,3457
-3,0,0,-1,-2,-1,1,-5,0,3458
-3,0,0,0,-2,-1,1,-5,0,3459
-3,0,0,0,-2,-1,1,-5,0,3460
-3,0,0,0,-2,-1,1,-5,0,3461
-3,0,0,0,-1,0,1,-5,0,3462
-3,0,0,0,-1,0,1,-5,0,3463
-3,0,0,0,-1,0,1,-4,0,3464
-3,0,0,0,-1,0,1,-4,0,3465
-3,0,0,0,-1,0,2,-4,0,3466
-3,0,0,0,-1,0,2,-4,0,3467
-3,0,0,1,-1,0,2,-4,0,3468
-3,1,0,1,-1,0,2,-4,0,3469
-3,1,0,1,-1,0,2,-4,0,3470
-2,1,0,1,0,0,2,-4,0,3471
-2,1,0,1,0,0,2,-4,0,3472
-2,1,0,1,0,0,2,-4,0,3473
-2,1,0,1,0,0,2,-4,0,3474
-2,1,0,1,0,0,2,-4,0,3475
-2,1,1,1,0,0,2,-4,0,3476
-2,1,1,2,0,0,2,-4,0,3477
-2,1,1,2,1,0,2,-4,0,3478
-2,1,1,2,1,0,2,-4,0,3479
-2,1,1,2,1,0,2,-4,0,3480
-2,1,1,2,1,0,2,-4,0,3481
-2,1,1,2,1,0,2,-4,0,3482
-2,2,1,2,1,0,2,-4,0,3483
-2,2,1,2,1,0,3,-3,0,3484
-2,2,1,2,1,0,3,-3,0,3485
-2,2,1,2,1,0,3,-3,0,3486
-2,2,1,2,1,1,3,-3,0,3487
-1,2,1,2,1,1,3,-3,0,3488
-1,2,0,2,1,1,3,-3,0,3489
-1,2,0,2,1,1,3,-3,0,3490
-1,2,0,2,1,1,3,-3,0,3491
-1,2,0,2,1,1,3,-3,0,3492
-1,3,0,2,1,1,3,-3,0,3493
-1,3,0,2,1,1,3,-3,0,3494
-1,3,0,2,1,1,3,-3,0,3495
-1,3,0,2,1,1,3,-3,0,3496
-1,3,0,2,1,1,3,-3,0,3497
-1,3,0,2,1,1,3,-3,0,3498
-1,3,0,2,1,1,3,-3,0,3499
-1,3,0,2,1,1,3,-3,0,3500
-1,3,0,2,2,1,3,-3,0,3501
-1,3,0,2,2,1,3,-3,0,3502
-1,3,0,2,2,1,3,-3,0,3503
-1,3,0,2,2,1,3,-3,0,3504
-1,3,0,2,2,1,3,-3,0,3505
0,3,0,2,2,1,3,-3,0,3506
0,3,1,2,2,2,3,-3,0,3507
0,3,1,2,2,2,3,-2,0,3508
0,3,1,3,2,2,3,-2,0,3509
0,3,1,3,2,2,3,-2,0,3510
0,3,1,3,2,2,4,-2,0,3511
0,3,0,3,2,2,4,-2,0,3512
0,3,1,3,2,2,4,-2,0,3513
0,3,1,3,2,2,4,-2,0,3514
0,3,1,3,2,2,4,-2,0,3515
0,4,1,3,2,3,4,-2,0,3516
0,4,1,3,2,3,4,-2,0,3517
0,4,1,3,3,3,4,-2,0,3518
0,4,1,3,3,3,4,-2,0,3519
0,4,1,3,2,3,4,-2,0,3520
0,4,1,3,2,3,4,-2,0,3521
0,4,1,3,2,3,4,-2,0,3522
0,4,1,3,2,2,4,-2,0,3523
0,3,1,3,2,2,4,-2,0,3524
0,3,1,3,1,2,4,-2,0,3525
0,2,1,3,1,1,3,-2,0,3526
0,2,1,3,0,1,3,-2,0,3527
0,1,1,3,0,1,3,-2,0,3528
0,1,1,2,0,1,3,-2,0,3529
0,1,0,2,0,2,4,-2,0,3530
1,1,0,3,0,3,5,-2,0,3531
1,1,1,3,2,4,7,-1,0,3532
2,2,1,4,3,6,9,0,0,3533
4,4,1,6,6,9,12,1,0,3534
6,6,1,8,10,13,16,3,0,3535
8,9,2,10,14,18,20,6,0,3536
12,14,4,13,20,24,26,9,0,3537
16,19,6,17,27,30,33,14,0,3538
21,26,8,22,34,38,40,19,0,3539
26,33,11,28,42,46,47,24,0,3540
32,42,14,34,50,54,55,31,0,3541
39,50,17,41,60,63,64,36,0,3542
47,60,21,48,70,72,73,44,0,3543
55,71,24,55,79,82,83,51,0,3544
63,82,28,63,89,91,92,59,0,3545
71,93,32,71,98,100,100,67,0,3546
79,104,36,78,106,108,108,74,0,3547
87,114,39,85,114,115,116,81,0,3548
94,124,43,92,121,122,122,88,0,3549
101,133,46,97,128,128,128,94,0,3550
107,141,48,103,133,133,133,100,0,3551
112,148,50,107,137,137,138,104,0,3552
117,154,52,111,141,140,141,108,0,3553
120,159,53,113,143,143,143,110,0,3554
123,162,54,115,145,144,145,112,0,3555
124,164,54,116,146,145,145,112,0,3556
124,164,53,115,146,145,145,112,0,3557
123,163,52,114,145,144,144,111,0,3558
121,161,51,111,143,142,142,108,0,3559
118,157,49,108,141,139,139,105,0,3560
114,151,46,104,138,135,135,101,0,3561
109,145,44,98,133,130,131,96,0,3562
103,137,40,93,128,125,125,91,0,3563
96,129,37,86,122,118,119,85,0,3564
89,119,33,79,116,111,112,78,0,3565
81,109,30,72,108,103,104,71,0,3566
73,98,26,64,100,94,96,64,0,3567
65,87,22,56,91,85,87,57,0,3568
56,76,19,49,82,75,78,49,0,3569
48,66,15,41,73,66,68,42,0,3570
41,55,12,34,63,56,59,35,0,3571
33,45,9,28,54,48,50,29,0,3572
27,37,6,22,46,40,42,23,0,3573
22,29,4,17,38,32,34,17,0,3574
17,21,2,12,30,25,26,12,0,3575
12,15,1,9,23,18,20,7,0,3576
9,10,0,6,18,13,14,4,0,3577
6,6,0,4,13,9,9,1,0,3578
4,3,0,2,8,5,5,0,0,3579
2,0,-1,1,5,3,2,-2,0,3580
1,0,-1,0,3,1,0,-3,0,3581
0,-1,-1,-1,1,0,0,-3,0,3582
0,-1,-1,-1,0,0,-1,-3,0,3583
0,-1,-1,-1,0,0,-1,-3,0,3584
0,-1,-1,-1,-1,0,-1,-2,0,3585
0,-1,-1,0,-1,0,0,-2,0,3586
0,0,-1,0,0,0,0,-1,0,3587
0,0,0,0,0,1,1,0,0,3588
0,0,0,0,0,1,2,0,0,3589
0,1,0,1,1,1,3,0,0,3590
0,1,0,1,1,2,3,1,0,3591
0,2,0,1,1,2,4,1,0,3592
0,2,0,1,1,2,4,2,0,3593
0,3,0,1,2,2,4,2,0,3594
0,3,0,1,2,3,5,2,0,3595
0,4,0,1,2,3,5,2,0,3596
0,4,0,2,3,4,5,3,0,3597
1,4,0,2,3,4,5,3,0,3598
1,5,0,2,4,5,6,3,0,3599
2,6,0,2,5,6,7,3,0,3600
3,6,0,2,6,7,7,4,0,3601
4,7,0,2,6,7,8,4,0,3602
5,7,-1,2,6,8,8,5,0,3603
5,8,-1,2,6,8,9,5,0,3604
6,8,-2,1,5,7,8,5,0,3605
6,8,-3,0,2,6,8,4,0,3606
5,7,-4,-2,-1,3,6,3,0,3607
5,5,-5,-4,-6,-1,3,1,0,3608
3,2,-7,-6,-13,-7,-1,-1,0,3609
0,-2,-8,-9,-20,-14,-7,-6,0,3610
-2,-7,-8,-12,-28,-22,-14,-12,0,3611
-7,-14,-8,-15,-36,-31,-22,-19,0,3612
-12,-21,-6,-17,-43,-40,-32,-26,0,3613
-18,-29,-3,-18,-48,-48,-41,-35,0,3614
-25,-38,2,-16,-49,-54,-50,-43,0,3615
-31,-45,7,-11,-46,-57,-57,-50,0,3616
-37,-51,17,-3,-35,-55,-61,-55,0,3617
-41,-55,28,10,-16,-45,-61,-57,0,3618
-42,-54,42,26,12,-27,-55,-54,0,3619
-41,-49,59,49,49,1,-41,-45,0,3620
-35,-36,77,76,98,40,-19,-29,0,3621
-25,-17,96,107,156,89,13,-5,0,3622
-9,11,115,142,224,150,55,26,0,3623
12,47,133,177,298,222,107,66,0,3624
38,93,149,212,377,302,169,115,0,3625
71,146,161,244,455,389,239,172,0,3626
109,207,167,270,530,478,315,235,0,3627
151,273,166,287,596,566,393,301,0,3628
196,341,158,292,650,649,472,369,0,3629
241,410,141,284,688,723,548,435,0,3630
285,477,114,261,706,783,616,497,0,3631
326,538,78,221,702,827,675,551,0,3632
363,591,33,165,674,852,720,596,0,3633
393,633,-18,93,623,856,750,629,0,3634
415,661,-75,10,551,838,762,648,0,3635
429,676,-136,-85,460,799,757,652,0,3636
432,675,-199,-185,354,741,734,642,0,3637
426,660,-259,-288,239,666,695,617,0,3638
411,629,-315,-387,119,578,641,580,0,3639
387,586,-364,-479,2,481,576,531,1024,3640
356,533,-404,-559,-109,380,502,474,0,3641
319,471,-432,-623,-208,278,424,412,0,3642
277,403,-449,-669,-291,182,343,346,0,3643
234,334,-453,-694,-356,93,265,280,0,3644
190,264,-445,-699,-400,16,191,217,0,3645
147,198,-425,-683,-424,-49,125,158,0,3646
107,137,-396,-649,-429,-99,67,106,0,3647
71,83,-359,-600,-416,-136,20,60,0,3648
40,38,-316,-538,-388,-158,-18,24,0,3649
15,1,-269,-468,-350,-168,-45,-4,0,3650
-5,-27,-221,-394,-303,-167,-63,-26,0,3651
-20,-48,-174,-318,-253,-158,-73,-40,0,3652
-30,-60,-130,-246,-202,-142,-76,-49,0,3653
-36,-66,-91,-178,-153,-122,-74,-52,0,3654
-39,-67,-56,-119,-108,-101,-68,-51,0,3655
-38,-64,-28,-68,-69,-80,-59,-48,0,3656
-35,-58,-5,-27,-37,-59,-50,-43,0,3657
-31,-50,11,5,-11,-41,-40,-37,0,3658
-26,-42,22,27,7,-26,-31,-31,0,3659
-21,-34,29,42,20,-14,-23,-26,0,3660
-16,-27,32,50,27,-6,-16,-21,0,3661
-12,-20,33,53,31,0,-11,-17,0,3662
-8,-15,31,52,31,4,-7,-13,0,3663
-5,-11,28,49,29,5,-4,-11,0,3664
-3,-8,25,44,26,5,-2,-10,0,3665
-1,-6,21,38,22,5,-2,-9,0,3666
0,-5,18,33,18,3,-1,-8,0,3667
0,-4,15,27,15,2,-1,-8,0,3668
0,-4,12,23,12,0,-2,-8,0,3669
0,-4,10,20,10,-1,-2,-8,0,3670
0,-5,9,17,8,-3,-2,-8,0,3671
0,-5,8,15,7,-3,-2,-9,0,3672
0,-5,8,14,7,-4,-3,-9,0,3673
0,-6,8,13,6,-4,-3,-9,0,3674
0,-6,8,13,6,-4,-3,-9,0,3675
0,-6,8,12,6,-4,-3,-9,0,3676
0,-6,8,13,7,-4,-3,-9,0,3677
0,-6,8,13,7,-4,-3,-9,0,3678
0,-6,8,13,7,-4,-3,-9,0,3679
0,-6,8,13,7,-4,-3,-9,0,3680
0,-5,8,13,8,-4,-3,-9,0,3681
0,-5,8,13,8,-4,-3,-9,0,3682
0,-5,8,13,8,-4,-3,-9,0,3683
0,-5,8,13,8,-3,-2,-9,0,3684
0,-5,8,14,8,-3,-2,-9,0,3685
0,-5,8,14,8,-3,-2,-8,0,3686
0,-5,8,14,8,-3,-2,-8,0,3687
0,-5,8,13,8,-3,-2,-8,0,3688
0,-5,8,13,8,-3,-2,-8,0,3689
0,-5,8,13,8,-2,-2,-8,0,3690
0,-5,8,13,8,-2,-2,-8,0,3691
0,-5,8,13,8,-2,-2,-8,0,3692
0,-5,7,13,8,-2,-2,-8,0,3693
0,-5,7,13,9,-2,-1,-7,0,3694
0,-5,7,13,9,-2,-1,-7,0,3695
0,-5,7,13,9,-2,-1,-7,0,3696
0,-4,7,13,9,-1,-1,-7,0,3697
0,-4,7,13,9,-1,-1,-7,0,3698
0,-4,7,13,9,-1,-1,-7,0,3699
0,-4,7,12,8,-1,-1,-7,0,3700
0,-4,7,12,8,-1,-1,-7,0,3701
0,-4,7,12,8,-1,-1,-7,0,3702
0,-4,7,12,8,-1,-1,-7,0,3703
0,-4,7,12,7,-1,-1,-7,0,3704
0,-4,7,12,7,-2,-1,-7,0,3705
0,-4,7,12,6,-2,-1,-7,0,3706
0,-4,6,11,6,-2,-2,-7,0,3707
0,-4,6,11,5,-3,-2,-8,0,3708
0,-5,6,11,5,-3,-2,-8,0,3709
0,-5,6,11,5,-3,-2,-8,0,3710
0,-5,6,11,5,-3,-2,-8,0,3711
0,-4,6,11,6,-2,-2,-7,0,3712
0,-4,6,11,8,-1,-1,-6,0,3713
1,-3,6,12,11,1,-1,-5,0,3714
2,-1,6,13,15,3,0,-4,0,3715
4,1,6,14,20,7,2,-2,0,3716
6,4,7,16,26,11,3,0,0,3717
8,8,8,18,34,17,6,2,0,3718
12,12,10,21,43,23,8,6,0,3719
16,17,11,24,52,31,12,10,0,3720
20,24,13,28,64,40,16,14,0,3721
26,30,16,32,77,50,20,19,0,3722
31,38,19,37,91,61,26,25,0,3723
37,46,22,43,107,73,32,31,0,3724
44,55,25,49,123,86,38,37,0,3725
52,65,29,56,140,101,45,44,0,3726
59,75,32,64,158,116,52,51,0,3727
68,86,36,72,177,131,61,59,0,3728
76,97,40,80,196,147,70,66,0,3729
84,108,44,89,215,164,79,74,0,3730
93,119,48,99,234,181,89,82,0,3731
102,130,52,109,254,198,99,90,0,3732
110,141,56,119,273,215,110,98,0,3733
119,152,60,130,292,232,121,105,0,3734
127,163,63,141,310,249,132,113,0,3735
135,174,67,152,328,265,143,120,0,3736
142,184,70,164,345,282,154,128,0,3737
150,194,73,175,362,297,165,135,0,3738
157,204,76,186,378,312,176,141,0,3739
164,213,78,197,394,326,187,148,0,3740
170,222,81,207,408,339,198,154,0,3741
176,231,83,217,422,352,208,160,0,3742
182,239,86,227,436,364,217,165,0,3743
188,247,88,235,448,375,226,170,0,3744
193,254,90,243,460,385,234,175,0,3745
198,261,92,251,471,395,241,180,0,3746
203,268,93,257,482,403,247,184,0,3747
207,274,95,263,491,412,253,188,0,3748
211,279,97,268,500,419,258,191,0,3749
214,284,98,272,508,426,262,194,0,3750
217,288,99,276,515,432,266,197,0,3751
220,292,100,279,522,437,269,199,0,3752
222,295,101,281,527,442,272,201,0,3753
224,298,102,284,532,445,274,203,0,3754
226,300,103,285,536,449,276,204,0,3755
227,302,103,287,538,451,277,205,0,3756
229,303,104,288,540,453,278,206,0,3757
229,303,104,289,540,453,279,206,0,3758
230,304,105,289,539,453,280,206,0,3759
230,303,105,290,536,452,280,205,0,3760
229,302,105,289,533,450,280,205,0,3761
229,301,105,289,528,447,279,204,0,3762
228,299,104,288,521,443,278,202,0,3763
226,296,103,286,514,437,277,200,0,3764
224,293,102,284,505,431,275,198,0,3765
221,290,101,281,495,423,273,196,0,3766
218,286,99,278,484,414,270,193,0,3767
214,281,97,274,471,404,266,189,0,3768
209,275,95,270,458,393,262,186,0,3769
204,269,92,265,444,381,257,182,0,3770
198,261,89,259,429,367,252,177,0,3771
192,254,85,253,414,353,245,172,0,3772
185,245,82,246,397,338,239,166,0,3773
177,236,78,238,380,322,231,160,0,3774
169,225,74,230,362,306,223,153,0,3775
160,215,69,221,343,289,214,146,0,3776
151,203,65,211,323,271,204,138,0,3777
142,191,60,201,302,252,194,129,0,3778
132,178,56,189,281,233,183,120,0,3779
122,165,51,177,259,214,171,111,0,3780
111,152,47,165,236,195,159,102,0,3781
101,138,42,152,214,175,146,92,0,3782
90,124,37,138,191,155,132,82,0,3783
80,110,33,124,168,136,119,73,0,3784
69,96,28,110,145,116,105,63,0,3785
59,83,24,97,123,98,92,54,0,3786
50,70,19,83,102,80,79,45,0,3787
40,57,15,70,82,63,66,36,0,3788
32,45,12,57,64,48,53,29,0,3789
25,35,8,46,47,33,43,21,0,3790
17,25,5,35,32,20,32,14,0,3791
11,16,2,25,18,8,22,8,0,3792
5,8,1,17,6,-2,13,2,0,3793
0,1,-1,10,-4,-10,6,-2,0,3794
-3,-5,-3,4,-12,-17,-1,-7,0,3795
-7,-10,-4,-1,-19,-23,-6,-11,0,3796
-9,-14,-5,-5,-24,-27,-10,-14,0,3797
-11,-18,-6,-8,-28,-30,-14,-16,0,3798
-13,-20,-6,-11,-30,-31,-16,-18,0,3799
-14,-22,-7,-12,-32,-32,-18,-19,0,3800
